91066,42;0,006230205
91083,16;0,006243402
91099,55;0,006253666
91116,12;0,006234604
91133,3;0,006237537
91149,25;0,006265396
91166,1;0,006266862
91182,63;0,006269795
91198,95;0,006269795
91215,52;0,006237537
91232,73;0,00628739
91248,65;0,006293255
91265,69;0,006306452
91281,78;0,006307918
91298,35;0,006313783
91314,92;0,006313783
91331,48;0,006316716
91348,25;0,006322581
91364,63;0,006313783
91381,19;0,006321114
91397,75;0,006319648
91414,31;0,006294721
91430,88;0,006274194
91447,45;0,006277126
91464,02;0,006291789
91480,59;0,006313783
91497,16;0,006331379
91513,72;0,006316716
91530,29;0,006303519
91550,61;0,006309384
91563,42;0,006285924
91579,98;0,00631085
91596,56;0,006329912
91613,16;0,006331379
91629,69;0,006344575
91646,57;0,006329912
91662,91;0,006357771
91679,38;0,006357771
91695,95;0,006363636
91713,05;0,006288856
91729,78;0,006294721
91745,65;0,006304985
91762,93;0,006304985
91778,79;0,006303519
91795,35;0,006303519
91812,59;0,006312317
91828,48;0,006312317
91845,09;0,006307918
91861,62;0,006281525
91878,77;0,006231672
91894,94;0,006233138
91911,31;0,006234604
91927,89;0,006209678
91944,83;0,006203813
91961,02;0,006195015
91977,59;0,006228739
91994,15;0,006195015
92011,05;0,006208211
92027,29;0,006199413
92043,85;0,006205278
92060,54;0,006228739
92076,99;0,006228739
92093,56;0,006228739
92110,13;0,006274194
92126,7;0,006274194
92143,47;0,006249267
92159,88;0,006249267
92176,7;0,006250733
92193;0,00627566
92209,95;0,006294721
92226,09;0,006324047
92242,93;0,006326979
92259,23;0,006379765
92276,16;0,006381232
92292,38;0,006365103
92309,16;0,006382698
92325,5;0,006366569
92342,06;0,006378299
92358,82;0,006378299
92375,18;0,00640176
92391,76;0,006456012
92408,32;0,006456012
92424,89;0,006463343
92443,95;0,006469208
92460,52;0,00646481
92477,42;0,00646481
92494,22;0,006489736
92510,24;0,006523461
92526,8;0,006469208
92543,66;0,006463343
92559,95;0,006434018
92576,5;0,006460411
92593,06;0,006406158
92609,72;0,006422287
92626,2;0,006422287
92642,77;0,006426686
92659,99;0,006426686
92675,91;0,006482405
92692,48;0,006494135
92709,04;0,006479472
92725,95;0,006466276
92742,18;0,006466276
92759,31;0,006467742
92775,3;0,006466276
92791,85;0,006486804
92808,43;0,006470675
92824,99;0,006501467
92842,27;0,006519062
92858,31;0,006524927
92874,7;0,006524927
92891,26;0,006483871
92907,82;0,006491202
92924,67;0,006495601
92940,95;0,006469208
92957,52;0,006498534
92974,14;0,006524927
92990,66;0,006524927
93007,23;0,00658651
93023,79;0,006621701
93040,36;0,006643695
93057,83;0,006639296
93082,74;0,006646628
93082,74;0,006624633
93102,74;0,006681818
93119,3;0,006678886
93135,88;0,006670088
93152,51;0,006673021
93169,02;0,006633431
93185,71;0,006630498
93202,14;0,006593842
93218,87;0,00658651
93235,3;0,006561584
93252,03;0,00653959
93268,94;0,00653959
93284,97;0,006587977
93301,54;0,00658651
93319,01;0,006561584
93334,67;0,006587977
93351,82;0,006601173
93368,02;0,006590909
93384,77;0,006570381
93400,93;0,006532258
93417,5;0,006533724
93434,07;0,006523461
93450,64;0,006519062
93467,2;0,006520528
93483,77;0,006538123
93500,34;0,006577712
93516,91;0,006568915
93534,1;0,00656305
93550,15;0,006554252
93566,6;0,006548387
93583,17;0,006542522
93600,1;0,006542522
93616,32;0,006520528
93632,87;0,006523461
93649,44;0,006523461
93666,27;0,00657478
93682,57;0,00657478
93699,57;0,006573314
93715,71;0,00701173
93732,27;0,007262463
93748,98;0,007343109
93765,41;0,007365103
93781,97;0,007629032
93798,54;0,008117302
93815,1;0,008140762
93831,67;0,008153959
93848,23;0,008153959
93864,84;0,008178886
93882,17;0,008394429
93897,94;0,008486804
93914,51;0,008458944
93931,07;0,008458944
93947,8;0,008530792
93964,48;0,008536657
93980,91;0,008519062
93997,79;0,008533725
94013,9;0,008530792
94030,63;0,008480938
94047,04;0,008458944
94063,61;0,008494135
94080,17;0,008494135
94097,12;0,008633431
94113,76;0,008740469
94129,87;0,008740469
94146,44;0,008794721
94163;0,008876833
94180,04;0,008910557
94196,4;0,008920821
94212,72;0,009041056
94229,27;0,009105572
94246,4;0,009178885
94262,41;0,009171554
94279,2;0,009171554
94295,66;0,009173021
94312,15;0,009165689
94328,66;0,009165689
94345,41;0,009133431
94361,8;0,009090909
94378,38;0,009228739
94394,94;0,009218475
94411,65;0,009218475
94428,33;0,009244869
94444,63;0,009278593
94461,2;0,009366569
94477,77;0,009497068
94494,48;0,009658358
94510,94;0,009771261
94527,47;0,0102346
94544,04;0,01035484
94560,6;0,01035484
94577,17;0,01052639
94593,73;0,01065103
94611,06;0,01092375
94626,88;0,01100293
94643,56;0,01105572
94660,02;0,01117595
94676,75;0,01127126
94693,14;0,01127126
94710,2;0,01161877
94727,2;0,01162023
94743,48;0,0117566
94759,76;0,0117566
94775,97;0,01179032
94792,54;0,01183431
94809,95;0,01185044
94825,73;0,01190763
94842,41;0,01212317
94859,2;0,01217302
94875,37;0,01221554
94892,19;0,01221554
94908,53;0,01252639
94925,07;0,01257918
94941,73;0,01257918
94958,2;0,01256892
94974,79;0,0126129
94991,34;0,01282405
95007,91;0,01290323
95024,77;0,01290029
95041,34;0,01288416
95057,6;0,01296774
95074,16;0,01302053
95090,73;0,01302053
95108,13;0,01304985
95123,87;0,01306012
95140,78;0,01305572
95157,01;0,01305572
95173,63;0,0130176
95190,15;0,01309971
95206,7;0,01320381
95223,27;0,01325073
95239,84;0,01325073
95256,4;0,01332845
95272,97;0,01328592
95289,54;0,01330938
95306,11;0,01333724
95322,99;0,01333724
95339,23;0,01330499
95355,8;0,01330205
95372,52;0,01334897
95388,94;0,01334164
95405,5;0,01337977
95422,07;0,01337683
95438,66;0,01337243
95455,2;0,01333431
95471,77;0,01331965
95488,34;0,01337243
95505,15;0,01338123
95521,48;0,0133563
95538,03;0,01337243
95555,05;0,01341936
95571,73;0,01341936
95587,73;0,01350586
95604,3;0,01350586
95620,9;0,0135088
95637,98;0,01352493
95654,2;0,01345161
95670,58;0,01342229
95687,77;0,0135132
95703,71;0,01317742
95720,27;0,01317742
95736,98;0,01299413
95753,41;0,01293842
95769,98;0,01258944
95786,55;0,01251026
95803,39;0,01231378
95819,74;0,01231378
95836,39;0,01231085
95853,07;0,01224927
95869,38;0,0122522
95886,38;0,01219355
95903,05;0,0119956
95919,33;0,0119956
95936,34;0,01202199
95952,2;0,01199707
95968,77;0,01198827
95985,34;0,0119868
96001,9;0,0119868
96018,66;0,01204545
96035,03;0,01206305
96051,6;0,01206598
96068,17;0,0120088
96084,8;0,01197361
96101,63;0,01192229
96117,87;0,01192229
96135,27;0,01187683
96151,2;0,0118915
96168,23;0,01180645
96184,6;0,01181525
96200,91;0,01181525
96217,58;0,01180645
96234,24;0,01173314
96250,41;0,01173314
96266,97;0,01160557
96283,54;0,01154545
96300,16;0,01156012
96317,24;0,01161877
96333,56;0,01160704
96349,98;0,01158798
96366,39;0,01151466
96383,55;0,01142962
96399,59;0,01143548
96416,76;0,01141349
96432,64;0,01139003
96449,85;0,0113695
96466,06;0,01120675
96482,36;0,01120675
96498,9;0,01097361
96515,63;0,01096481
96532,09;0,01064516
96548,66;0,01047214
96565,17;0,01046041
96581,88;0,01040762
96598,31;0,01033138
96614,87;0,01033138
96631,44;0,009957478
96648,52;0,009859238
96664,56;0,009758065
96681,14;0,009702346
96697,7;0,009420821
96714,27;0,009414956
96731,52;0,009414956
96747,41;0,009347508
96763,98;0,009325514
96780,53;0,009309384
96797,48;0,009269794
96813,69;0,009262463
96830,66;0,009230206
96847,05;0,009090909
96863,38;0,009093842
96880,8;0,009067449
96896,5;0,009052786
96913,07;0,008794721
96930,14;0,008753666
96946,45;0,008633431
96963,27;0,008470675
96979,66;0,008469208
96995,91;0,008456012
97012,47;0,008456012
97029,04;0,008357772
97045,74;0,008384164
97062,29;0,008387097
97078,73;0,008329912
97095,38;0,008341642
97111,87;0,008412024
97128,43;0,008441349
97145,01;0,008473607
97161,82;0,008497068
97178,14;0,0085
97194,7;0,008375366
97211,64;0,008329912
97228,5;0,008329912
97244,55;0,008274194
97260,97;0,008400293
97277,53;0,008450147
97294,11;0,008466275
97310,88;0,008466275
97327,43;0,008517595
97343,8;0,008517595
97360,6;0,008486804
97376,94;0,008513196
97393,5;0,008504399
97410,07;0,008497068
97427,57;0,008536657
97443,52;0,008536657
97460,02;0,008746334
97476,34;0,008790323
97492,91;0,008790323
97510,05;0,008809384
97526,52;0,008809384
97543,03;0,008656892
97559,16;0,008681818
97575,73;0,008624634
97592,38;0,008696481
97609,68;0,008714076
97625,44;0,008746334
97642,34;0,008782991
97658,59;0,008804985
97675,14;0,008683285
97692,06;0,008648094
97708,4;0,008865103
97724,84;0,008978006
97741,73;0,009105572
97757,98;0,009161291
97774,56;0,009161291
97791,1;0,009136364
97808,54;0,009140763
97824,26;0,009111437
97840,86;0,009118768
97857,37;0,009134897
97873,94;0,009370968
97890,7;0,009456011
97907,08;0,00946481
97923,64;0,00946481
97940,2;0,009388563
97956,77;0,009388563
97973,91;0,009423754
97990,42;0,009565983
98006,59;0,009571848
98023,05;0,009565983
98039,62;0,00963783
98056,41;0,009686217
98072,74;0,00973607
98089,8;0,009741936
98105,87;0,009670088
98122,56;0,009670088
98139,04;0,009655425
98155,57;0,009653959
98172,15;0,009642228
98188,7;0,009665689
98206,02;0,009780059
98221,84;0,009813783
98238,68;0,009844575
98254,98;0,009844575
98271,55;0,009970674
98288,11;0,009970674
98304,73;0,01002346
98321,24;0,01013196
98337,84;0,01023021
98354,88;0,01031672
98371,32;0,01034604
98387,52;0,01036217
98404,09;0,01035044
98420,65;0,01037683
98437,3;0,01037537
98453,78;0,01040029
98470,34;0,01040029
98487,02;0,01055865
98503,67;0,01054399
98520,04;0,01055865
98537,02;0,01059824
98553,49;0,01059824
98569,73;0,0105088
98586,3;0,01046334
98603,05;0,01044575
98619,92;0,01048094
98636,01;0,01077273
98653,35;0,01099707
98669,13;0,01098094
98685,92;0,01105719
98702,27;0,01105719
98718,84;0,01104692
98735,41;0,0109912
98751,97;0,01097801
98768,84;0,0110044
98786,05;0,01098387
98802,09;0,01098387
98818,73;0,01104546
98834,8;0,01103519
98851,38;0,01104106
98867,94;0,01103226
98884,51;0,01110117
98901,07;0,01110117
98917,63;0,01107185
98934,2;0,01104692
98950,92;0,01104692
98967,41;0,01103079
98983,9;0,01102933
99000,48;0,01105865
99017,05;0,01124487
99033,6;0,01124487
99050,96;0,01126246
99067,55;0,01126246
99083,3;0,01121994
99099,87;0,01115249
99116,43;0,01115836
99133,33;0,01118035
99150,27;0,01120821
99166,59;0,01117742
99183,16;0,01117595
99199,45;0,01123167
99215,84;0,01123167
99232,41;0,01124927
99248,97;0,0112478
99265,53;0,01114809
99282,1;0,01118915
99298,66;0,01120381
99315,24;0,01119648
99332,66;0,01118768
99348,63;0,01123754
99364,94;0,01127419
99381,66;0,01127419
99398,07;0,01138416
99414,63;0,01138416
99431,2;0,01155425
99447,77;0,0116129
99464,34;0,01159677
99480,95;0,01154252
99497,58;0,01160264
99514,11;0,01160264
99530,6;0,01177713
99547,25;0,01177713
99563,74;0,01192229
99580,3;0,0118783
99596,87;0,01180059
99613,61;0,01178886
99630,13;0,01178886
99646,57;0,01178152
99663,68;0,01176686
99679,8;0,01176833
99696,27;0,01190176
99712,94;0,01190176
99729,52;0,01172287
99746,09;0,0116261
99762,53;0,01153666
99779,11;0,01147801
99795,67;0,01147507
99813;0,0116349
99829,55;0,0117434
99845,37;0,0117434
99861,94;0,01180059
99878,5;0,01181085
99895,56;0,01180205
99911,63;0,01170968
99928,23;0,01171408
99944,77;0,01171994
99961,75;0,01171261
99977,91;0,01161144
99994,47;0,01163783
100011,1;0,01163783
100028,1;0,01165836
100044,2;0,01160704
100060,7;0,01159531
100077,3;0,01155132
100094,1;0,01156158
100110,4;0,01170381
100127,1;0,01169795
100143,6;0,01164956
100160,1;0,01154839
100176,7;0,01154839
100193,3;0,01154252
100209,8;0,01159531
100226,4;0,01180499
100243,8;0,01180499
100259,6;0,0117654
100276,1;0,01164516
100293;0,01162317
100309,2;0,01160411
100326,3;0,01160411
100342,4;0,01145601
100359,2;0,01145308
100375,5;0,01143402
100392,1;0,0115
100408,8;0,0117522
100425,2;0,01177713
100441,8;0,01181965
100458,3;0,01192669
100474,9;0,0120176
100491,5;0,0120176
100508,2;0,01194135
100524,8;0,01184311
100541,2;0,01184751
100557,7;0,0118651
100574,3;0,0118651
100590,9;0,01191202
100607,6;0,01197361
100624;0,0119824
100640,9;0,0119824
100657,4;0,01175073
100673,7;0,01177566
100690,3;0,01175513
100706,8;0,01171261
100723,4;0,01171261
100740;0,01170235
100756,5;0,01169208
100773,6;0,01166422
100789,7;0,0116129
100806,2;0,01163783
100822,8;0,01175513
100839,5;0,01175073
100855,9;0,01171114
100872,5;0,01169208
100889,1;0,01159677
100905,6;0,0116305
100922,2;0,01166569
100938,8;0,01169648
100955,6;0,0120044
100972;0,01209531
100990;0,01215836
101005,1;0,01231525
101022,1;0,01231672
101038,2;0,01244428
101054,8;0,01259384
101071,3;0,01291496
101087,9;0,01310557
101104,4;0,01317742
101121;0,01319208
101137,6;0,01318915
101154,5;0,01314516
101171,1;0,01315689
101187,3;0,01315249
101203,9;0,01315249
101220,4;0,01314516
101237,2;0,01351613
101253,5;0,01354839
101270,9;0,01360704
101286,7;0,01360704
101303,2;0,0136437
101320;0,0136437
101336,4;0,01374633
101352,9;0,01374633
101369,5;0,01380938
101386,1;0,0137522
101402,6;0,01358211
101419,2;0,01357771
101435,8;0,01357625
101452,3;0,01357625
101468,9;0,01359238
101486;0,01366276
101502;0,01366716
101518,6;0,01376246
101535,2;0,01376246
101552,4;0,01370674
101568,7;0,01371408
101584,9;0,01378592
101601,4;0,01378592
101618;0,0138607
101634,6;0,01391936
101651,2;0,01393842
101667,7;0,01395601
101684,5;0,01395601
101701;0,01402786
101717,4;0,0138607
101734,2;0,0138651
101750,5;0,01385044
101767,3;0,01385044
101783,7;0,01389003
101801,2;0,01383284
101816,8;0,0136393
101833,4;0,01360117
101850,1;0,01363343
101866,5;0,01360557
101883,1;0,01368622
101899,6;0,01378446
101916,3;0,01382845
101932,8;0,0138651
101949,3;0,01387097
101966,3;0,0138739
101982,5;0,0138739
101999;0,01396188
102015,7;0,01395894
102032,2;0,01416716
102048,7;0,01420528
102065,3;0,01412463
102081,9;0,0140088
102098,5;0,01399707
102115;0,01405718
102131,7;0,01421701
102148,6;0,01431525
102164,8;0,01438416
102181,3;0,01458504
102198,1;0,01457185
102214,4;0,01446774
102231,1;0,01446774
102247,6;0,01431378
102264,9;0,01433138
102281;0,01432845
102297,5;0,01431965
102313,8;0,01431965
102330,4;0,0144956
102347,1;0,01458358
102363,5;0,014739
102380,2;0,01484018
102396,6;0,01484018
102413,2;0,0146217
102430,6;0,01462317
102446,5;0,01447947
102462,9;0,01435777
102479,6;0,0142698
102496;0,01428299
102513,5;0,01428299
102529,5;0,01441642
102545,9;0,01442082
102562,3;0,01440909
102578,9;0,01438416
102595,4;0,0143915
102612,8;0,0143915
102628,6;0,01443402
102645,1;0,01443402
102661,7;0,0144912
102678,5;0,01443988
102694,8;0,01445894
102711,4;0,01445894
102728;0,01447654
102744,5;0,0146437
102761,2;0,0146085
102777,7;0,01460997
102794,5;0,01460997
102811;0,01481818
102828;0,01482111
102844,1;0,01484604
102860,9;0,01485337
102877,8;0,01485337
102893,7;0,01503226
102910,8;0,0150088
102926,9;0,01492375
102943,3;0,01480499
102959,9;0,01458944
102976,6;0,0146305
102993;0,0146305
103009,6;0,0143695
103026,2;0,01427126
103042,9;0,01423167
103059,7;0,0138607
103076,4;0,0138607
103092,7;0,01353959
103109;0,01352786
103125,6;0,01352786
103142,1;0,01346628
103158,7;0,01359824
103175,3;0,0136349
103191,9;0,01366716
103208,4;0,01361584
103225;0,01350733
103241,5;0,01350733
103258,3;0,01353226
103274,7;0,01353226
103291,2;0,01353226
103307,8;0,01343988
103325,1;0,01350733
103341,4;0,01356598
103357,5;0,01358651
103374,2;0,01357625
103390,6;0,01357185
103407,2;0,01357185
103423,8;0,01345161
103440,8;0,01345015
103457;0,01339883
103473,5;0,01336217
103490,4;0,01333578
103506,9;0,01326393
103523,2;0,01324047
103540;0,01325806
103556,4;0,01308651
103572,9;0,01306158
103589,6;0,01297361
103606,9;0,01297361
103622,6;0,01303959
103639,4;0,01310704
103656,4;0,01325513
103672,4;0,01323754
103688,9;0,01322581
103705,4;0,01302493
103722,3;0,01302786
103738,5;0,01302346
103755,1;0,01303959
103771,8;0,01307771
103788,3;0,01341202
103804,8;0,01341202
103821,8;0,01351906
103837,9;0,0135
103854,5;0,0135
103871,1;0,01334751
103888;0,01319648
103904,2;0,01312317
103920,8;0,01312317
103937,3;0,01306745
103954,5;0,0131173
103970,9;0,01328006
103987,3;0,0132478
104003,7;0,013239
104020,3;0,01322141
104036,7;0,01345601
104053,4;0,0135176
104069,9;0,01348827
104086,8;0,01348827
104103;0,0135088
104120,2;0,01350586
104136,1;0,01336364
104152,7;0,01328592
104170;0,01328006
104185,8;0,01293842
104202,4;0,01293548
104219;0,01294721
104235,5;0,01299707
104252,1;0,01301613
104268,7;0,01304545
104286;0,01304545
104301,8;0,01310557
104318,7;0,01300293
104334,9;0,01293548
104352,2;0,01292522
104368,1;0,01284751
104384,6;0,01284897
104401,2;0,01286364
104417,8;0,0128563
104434,4;0,01283284
104451,2;0,01281965
104467,8;0,01279912
104484;0,01280792
104500,6;0,01278446
104517,2;0,01269648
104533,7;0,01269648
104550,8;0,01265103
104567;0,01265103
104583,5;0,01274047
104600;0,01303812
104616,8;0,01289296
104633,2;0,01278006
104649,8;0,01269355
104666,3;0,01270528
104683,1;0,01270528
104699,9;0,01271261
104716,1;0,01278886
104732,5;0,01276686
104749,3;0,01266276
104766,2;0,01269501
104782,2;0,01279619
104798,8;0,01280792
104815,4;0,01280792
104831,9;0,01257478
104848,7;0,0125044
104865,1;0,01247361
104881,6;0,01233724
104898,3;0,01233431
104915,5;0,01233431
104931,3;0,01237243
104948,1;0,01252053
104964,6;0,01264076
104981;0,01265249
104997,6;0,01267009
105014,2;0,01277273
105030,8;0,01281965
105047,3;0,01295894
105063,9;0,01314076
105080,4;0,01325513
105097,5;0,01325513
105113,9;0,01377713
105130,1;0,01403226
105147,4;0,01407625
105163,3;0,01405718
105179,9;0,01405718
105196,4;0,01403372
105213;0,01401026
105229,5;0,01379472
105246,2;0,01370674
105262,7;0,01375953
105279,2;0,01375953
105295,8;0,01377713
105312,5;0,01392962
105328,9;0,01385924
105345,8;0,01377859
105362,1;0,01375367
105378,6;0,01371554
105395,2;0,01389736
105411,8;0,01392522
105428,3;0,01401466
105445,2;0,0141173
105461,5;0,01416129
105478;0,01420235
105494,6;0,01422874
105511,3;0,01419062
105527,7;0,01419062
105544,3;0,01426686
105561,1;0,01429179
105577,4;0,01428153
105594,2;0,01427566
105611,1;0,01415836
105627,1;0,01412903
105643,7;0,01408651
105660,3;0,01408651
105676,8;0,01394575
105693,6;0,01397214
105710;0,01397507
105726,5;0,01397507
105743,1;0,01398094
105760,2;0,01400293
105776,2;0,01401759
105792,8;0,01386803
105809,4;0,01386803
105825,9;0,01372141
105842,8;0,01372287
105859,6;0,01372287
105875,6;0,01374487
105892,2;0,01381085
105908,9;0,01378153
105925,8;0,01377273
105941,9;0,01371701
105958,5;0,01357918
105975;0,01357918
105991,6;0,01346628
106009;0,01309971
106024,7;0,01313343
106041,4;0,01302933
106058,1;0,01302786
106074,4;0,01296041
106091;0,01293402
106107,7;0,01294575
106124,1;0,01305572
106141,3;0,01317742
106157,3;0,01320088
106173,8;0,01320674
106190,4;0,01333138
106207;0,01351613
106224;0,01360704
106240,8;0,01360117
106257;0,01367595
106273,7;0,0137346
106290,3;0,01373314
106306,4;0,01378299
106323;0,01374633
106340,2;0,01370968
106356,1;0,01365982
106373,6;0,01343402
106389,5;0,01337537
106405,8;0,01333871
106422,4;0,01333284
106439,3;0,01334164
106455,5;0,01334164
106472,2;0,01337683
106488,9;0,01336804
106505,2;0,01336217
106521,7;0,01339736
106538,4;0,0133915
106554,9;0,01313636
106572,1;0,01320821
106588;0,01331232
106604,6;0,01336804
106621,6;0,01354839
106637,7;0,0136305
106654,3;0,01377566
106671,6;0,01383138
106687,4;0,01383138
106704,4;0,01393402
106720,9;0,01421701
106737,1;0,01427273
106754,1;0,0143739
106770,2;0,01451026
106786,8;0,0146305
106803,9;0,01466276
106820,4;0,01474633
106836,6;0,01484164
106853,1;0,01509384
106869,6;0,01515396
106886,7;0,01543108
106902,8;0,01557918
106919,3;0,01560411
106936,3;0,01560411
106952,9;0,01560411
106969;0,01553226
106985,6;0,01543402
107002,2;0,01543548
107019;0,01546774
107035,3;0,01547947
107051,9;0,01529179
107068,9;0,01506745
107085;0,01498534
107102;0,01503959
107119;0,01504399
107134,7;0,01514076
107151,7;0,01448974
107167,8;0,01449414
107184,8;0,01458504
107201,1;0,01475806
107217,5;0,01477859
107234,1;0,0148739
107250,7;0,01484457
107267,2;0,01479472
107283,9;0,01475953
107300,4;0,01440323
107317,1;0,01432991
107333,8;0,01430059
107350,1;0,01428299
107367,5;0,01429326
107383,2;0,01432258
107400,1;0,01415543
107416,3;0,01431232
107432,9;0,01433138
107449,8;0,0142346
107466,1;0,01416129
107482,6;0,01441789
107499,2;0,01452199
107515,8;0,01464663
107532,5;0,014761
107549,4;0,01470381
107565,4;0,01477566
107582;0,01479032
107598,7;0,01484604
107615,1;0,01479912
107632;0,01478299
107648,6;0,01478299
107665,3;0,01513197
107681,4;0,01515689
107698;0,0151129
107714,5;0,01513636
107731,6;0,01513636
107747,7;0,01508944
107765;0,01509091
107780,8;0,01522434
107797,4;0,01508065
107813,9;0,01510557
107830,5;0,01532551
107847,1;0,01532551
107863,6;0,01543402
107880,2;0,01543402
107897,5;0,01543548
107913,3;0,01542229
107930,3;0,01549707
107947;0,01549707
107963,6;0,01554545
107980;0,01558211
107996,2;0,01560704
108012,7;0,01573021
108029,9;0,01579179
108046,1;0,01581525
108062,5;0,01582111
108084,2;0,01586804
108095,6;0,01588123
108112,1;0,01595454
108128,7;0,01583138
108145,3;0,0157522
108162;0,0157566
108178,4;0,01582551
108195;0,01575513
108211,7;0,01567449
108228,1;0,01566716
108244,7;0,01565103
108261,2;0,01565103
108277,9;0,01562463
108294,7;0,01560704
108310,9;0,01549707
108327,6;0,0155044
108344,1;0,01555865
108360,6;0,01556745
108377,2;0,01556745
108394,1;0,01562757
108410,6;0,0156305
108426,9;0,01582405
108443,5;0,01600733
108460;0,01608944
108476,6;0,0161261
108493,2;0,01616276
108510,2;0,01612463
108526,3;0,01611144
108542,9;0,0161261
108559,4;0,01615396
108576,1;0,01615396
108592,6;0,01621994
108609,5;0,01613636
108625,7;0,01598827
108642,3;0,01577419
108659,4;0,01577419
108675,5;0,01569208
108692;0,01572434
108708,5;0,01572434
108725,1;0,01533578
108741,7;0,01533138
108758,3;0,01533578
108775,4;0,0151349
108791,4;0,01497067
108808,2;0,01487097
108824,5;0,01481672
108841,2;0,01481525
108858,3;0,01458651
108874,3;0,01445308
108890,8;0,01438123
108907,8;0,01428153
108923,9;0,01424194
108941;0,0142434
108957,8;0,01408504
108974;0,01398094
108990,6;0,01402493
109006,8;0,01402493
109023,3;0,01402786
109039,9;0,01405865
109056,7;0,01414076
109073,2;0,01434897
109089,8;0,01434311
109106,1;0,01419941
109122,7;0,01419941
109139,3;0,01417009
109155,8;0,01406452
109172,4;0,01398974
109189,4;0,01390176
109205,5;0,01399853
109222,4;0,01401026
109238,7;0,01403812
109255,5;0,01408358
109271,8;0,01408504
109288,6;0,01408504
109305;0,0141349
109321,5;0,01416716
109338,1;0,0142434
109354,9;0,01441642
109371,4;0,01441642
109388,6;0,01460704
109404,3;0,01478299
109420,9;0,01457038
109437,8;0,01457038
109454;0,01451906
109470,7;0,01449414
109487,2;0,01449414
109503,9;0,01432991
109520,3;0,01418182
109536,9;0,01415982
109553,4;0,01414956
109570;0,01414956
109586,6;0,0142566
109603,1;0,01429619
109619,7;0,01436217
109636,3;0,01434604
109653,4;0,01434604
109669,5;0,01425367
109686;0,01425367
109702,5;0,01431672
109719,1;0,01433578
109735,7;0,0143563
109752,2;0,01432551
109768,8;0,01432551
109785,4;0,01437243
109801,9;0,0145176
109818,5;0,01441789
109835,1;0,01432405
109851,6;0,01432405
109868,5;0,01446921
109885,4;0,01458065
109901,3;0,01456305
109917,9;0,01456305
109934,5;0,0145088
109951;0,01448974
109967,6;0,01452346
109984,2;0,01468182
110000,7;0,01477273
110017,3;0,01474194
110033,9;0,0146349
110051,1;0,0146349
110067,7;0,01458211
110083,6;0,01458211
110100,2;0,0145
110116,7;0,01470528
110133,5;0,01483871
110149,8;0,01493988
110166,5;0,01509091
110183;0,01502933
110199,9;0,01498387
110216,1;0,01497507
110232,7;0,01518622
110249,3;0,01540762
110265,9;0,01530938
110282,5;0,0152566
110299,3;0,0152566
110315,5;0,015239
110332,2;0,01523314
110348,9;0,01531672
110365,2;0,0153651
110381,8;0,01520674
110398,3;0,01516129
110414,9;0,01507771
110431,5;0,01512317
110448;0,01512317
110464,6;0,01518475
110481,2;0,01517155
110498,6;0,01516276
110514,3;0,01519062
110530,9;0,01519062
110548;0,01529619
110564;0,01529619
110580,6;0,01530499
110597,1;0,01535631
110613,8;0,01547214
110630,3;0,01547654
110646,8;0,01545308
110663,4;0,01542962
110680,3;0,0153783
110696,5;0,01540909
110713,1;0,01562903
110730;0,01562903
110748;0,01568328
110762,8;0,01570674
110779,4;0,01554839
110796,5;0,01558064
110812,5;0,01558064
110829,1;0,0156261
110845,7;0,01564076
110862,2;0,01586657
110879,1;0,016
110896,3;0,01607771
110911,9;0,01607478
110928,5;0,01607478
110945,6;0,01603372
110962,3;0,0159824
110978,3;0,0159824
110994,8;0,01594282
111011,5;0,01576246
111027,9;0,01564076
111044,9;0,01560704
111061;0,01560264
111077,6;0,01603226
111094,6;0,01601906
111110,7;0,01601026
111127,3;0,01601026
111143,8;0,01602933
111160,4;0,01640909
111177;0,0165132
111193,5;0,01661144
111210,1;0,01661144
111226,7;0,01652639
111243,2;0,01646921
111259,8;0,01642522
111277;0,01640323
111292,9;0,01639883
111309,6;0,01647801
111326,1;0,01648974
111342,6;0,01653959
111359,2;0,01653959
111376,1;0,01624927
111392,5;0,01601906
111408,9;0,01593402
111425,5;0,01592669
111442;0,01592669
111459,2;0,01604106
111475,3;0,01608944
111491,9;0,01606012
111508,4;0,01606012
111525,1;0,01595308
111541,4;0,01587977
111558,3;0,01585484
111575,1;0,01585191
111591,8;0,01573314
111608,2;0,01571701
111624,6;0,01566862
111641,2;0,01605132
111657,4;0,01602786
111674;0,01583724
111690,7;0,01582405
111707,1;0,01577273
111723,7;0,01571554
111740,3;0,01577419
111756,8;0,01579912
111773,4;0,01603812
111790;0,01614956
111806,5;0,01615689
111823,5;0,01613343
111839,6;0,01611877
111856,2;0,01616569
111872,8;0,016
111889,3;0,01595308
111905,9;0,01598387
111922,8;0,0159868
111939,9;0,0159912
111956;0,01619208
111972,3;0,01619501
111989,2;0,01603372
112006,4;0,01595308
112021,9;0,01591642
112038,4;0,01583578
112055;0,0161261
112071,6;0,0161393
112088,4;0,0161393
112104,7;0,01605132
112121,9;0,01593255
112137,8;0,01573754
112154,4;0,01562023
112171;0,01558211
112187,8;0,01560117
112204,1;0,01557918
112221;0,01557918
112237,2;0,01546334
112253,8;0,01546188
112270,4;0,01526246
112286,9;0,0154868
112303,5;0,01554399
112320,1;0,01554399
112337,2;0,01545455
112353,2;0,01543109
112369,9;0,01543255
112386,3;0,01542522
112403,2;0,01542082
112419,5;0,01542229
112436,2;0,01535777
112452,8;0,01535777
112469,2;0,01534458
112485,8;0,01537097
112502,5;0,01577126
112518,9;0,01573607
112535,6;0,01569501
112552;0,01572874
112568,6;0,01572287
112585,4;0,01562903
112601,7;0,01539296
112618,3;0,01532698
112634,8;0,01528299
112651,4;0,01528299
112668;0,01531818
112684,5;0,01537097
112701,8;0,01525367
112717,7;0,0151437
112734,3;0,01523314
112751;0,01532698
112767,4;0,01532698
112783,9;0,0153783
112801,1;0,01528006
112817,1;0,0152654
112833,6;0,01525513
112850,2;0,01525513
112866,9;0,01513197
112883,3;0,01513197
112900,8;0,01507771
112916,5;0,01493695
112933,7;0,01498387
112950,2;0,0150132
112966,2;0,01499707
112982,7;0,01500733
112999,3;0,01508651
113015,9;0,01503519
113032,4;0,01505718
113049;0,01508651
113065,7;0,01482551
113082,1;0,01461584
113098,7;0,01465396
113115,4;0,0147434
113131,8;0,0147434
113148,4;0,01477126
113165,5;0,01464076
113181,7;0,01452933
113198,1;0,01442229
113214,7;0,01433724
113231,2;0,01436657
113247,8;0,01443842
113264,4;0,01455279
113281,2;0,01455279
113297,5;0,01466716
113314,8;0,01460411
113330,6;0,01458504
113347,2;0,01457038
113363,8;0,01451026
113380,3;0,01452053
113396,9;0,01454985
113414,1;0,01454985
113430;0,0148607
113446,6;0,01495015
113463,2;0,01485337
113479,7;0,01485337
113496,3;0,01482845
113513,6;0,01482845
113529,4;0,01483284
113546;0,01475073
113562,6;0,01477273
113579,9;0,014761
113595,8;0,01468328
113612,8;0,01468328
113629,4;0,01434897
113645,4;0,01434897
113662;0,01422287
113679;0,0142478
113695,1;0,01427419
113711,8;0,0143651
113728,3;0,0143651
113744,8;0,01452786
113761,7;0,01434457
113777,9;0,01412317
113794,5;0,01398827
113811,1;0,01398827
113827,6;0,01394868
113844,8;0,01382111
113860,8;0,01382111
113877,4;0,01399413
113893,9;0,01400147
113910,8;0,0139956
113927,7;0,01394282
113943,6;0,01388123
113960,5;0,01375073
113976,7;0,01378153
113993,4;0,01381525
114009,9;0,01403372
114026,7;0,01407771
114043;0,01410997
114059,6;0,01391789
114076,3;0,01379472
114093,3;0,01378592
114109,3;0,01382845
114125,8;0,01395308
114142,5;0,01395308
114159,1;0,01397654
114175,6;0,01405572
114192,1;0,01385337
114208,7;0,01393988
114225,8;0,01402493
114242,3;0,01405718
114258,4;0,01399707
114274,9;0,01370821
114292,3;0,01370821
114310,1;0,01366569
114324,6;0,01349707
114341,3;0,01349707
114357,8;0,0136085
114374,5;0,01370235
114390,9;0,01379619
114408,2;0,01383284
114424;0,01373754
114440,6;0,01372727
114457,4;0,01364223
114473,7;0,01360997
114490,4;0,01334018
114506,9;0,01312757
114523,7;0,01321408
114540,1;0,01326246
114557;0,01321994
114573,7;0,013
114590;0,01296481
114606,3;0,01300147
114623,5;0,01301173
114639,4;0,01308065
114656,1;0,01320381
114672,5;0,01328446
114689,5;0,0132434
114706;0,01317449
114722,2;0,01305425
114738,8;0,01293255
114755,4;0,01284751
114772,2;0,01284751
114788,5;0,01286657
114805,1;0,01281525
114821,8;0,01285191
114838,4;0,0136261
114854,8;0,01366129
114871,3;0,01332405
114887,9;0,01331818
114904,5;0,01333431
114921;0,01334311
114937,6;0,01331965
114954,2;0,01330205
114970,7;0,01327419
114987,3;0,01322874
115004,3;0,01310997
115020,4;0,01309677
115037,2;0,01311144
115053,6;0,01311144
115070,9;0,01296921
115087,2;0,01296334
115104,1;0,01289736
115119,8;0,01287243
115136,9;0,01280059
115153,1;0,01254106
115169,5;0,01240469
115186,1;0,01242522
115202,7;0,01240909
115219,3;0,0123783
115235,8;0,01238563
115252,4;0,01234751
115269;0,01224047
115285,5;0,01219941
115302,1;0,01215689
115319;0,01215689
115335,6;0,01216716
115351,8;0,0120088
115368,5;0,01200733
115384,9;0,01199853
115401,5;0,01195748
115418;0,01194428
115435;0,01183284
115451,2;0,01171848
115468,1;0,01185631
115484,4;0,01180499
115500,9;0,01197801
115517,4;0,01214076
115534,2;0,01231085
115550,6;0,01244428
115567,9;0,0125
115583,7;0,01269941
115600,3;0,01315396
115616,8;0,01320381
115633,4;0,0132434
115650,1;0,0132478
115666,5;0,0132478
115683,5;0,01335337
115699,7;0,0136217
115716,2;0,01358651
115732,9;0,01347507
115749,4;0,01345015
115765,9;0,01342962
115782,6;0,01339296
115799,1;0,01357625
115815,7;0,01416862
115832,2;0,01422727
115848,8;0,01418622
115865,3;0,01404692
115882,3;0,01404692
115898,7;0,01400586
115915;0,01416862
115931,7;0,0142566
115948,4;0,01423167
115964,7;0,01420528
115981,3;0,014261
115997,9;0,01442229
116014,4;0,01442229
116031,1;0,01428153
116048;0,01445894
116064,9;0,01460704
116080,9;0,0146173
116097,8;0,01462757
116114,2;0,01482405
116130,4;0,01468622
116147;0,01465689
116164,1;0,01469501
116180,1;0,01481818
116196,7;0,0150132
116213,2;0,0150132
116229,8;0,01495894
116246,9;0,01502346
116263,6;0,01509238
116279,5;0,01516569
116296,1;0,01518328
116312,6;0,01540616
116329,3;0,01549414
116345,9;0,01544428
116362,3;0,01540616
116378,9;0,01542962
116395,5;0,01539003
116412;0,01543695
116428,6;0,01545455
116445,2;0,01552933
116461,7;0,01566276
116478,3;0,0157434
116495;0,01573167
116511,4;0,01571994
116528;0,01571114
116544,9;0,01569941
116561,1;0,01575513
116577,7;0,01578886
116594,4;0,01581085
116610,8;0,01581085
116627,7;0,01587243
116644;0,01564956
116660,5;0,01562317
116677,1;0,0156173
116694;0,0156173
116710,2;0,01564516
116726,8;0,01564956
116743,4;0,01567742
116760,5;0,01576833
116776,5;0,01571994
116793,3;0,01537977
116809,6;0,01529326
116826,5;0,01497507
116842,8;0,01489443
116859,6;0,0148783
116875,9;0,01490762
116892,8;0,01495894
116909,2;0,0149912
116926,3;0,01498974
116942,8;0,01498827
116959,5;0,01499707
116975,4;0,01499707
116991,9;0,01502639
117008,4;0,01504692
117025;0,0150132
117041,8;0,01504399
117058,7;0,01502786
117075;0,01506452
117091,5;0,01507771
117107,8;0,01510704
117124,4;0,01510704
117141;0,01521994
117157,8;0,01521994
117175;0,01532845
117190,7;0,01546041
117207,2;0,01557625
117223,8;0,01561437
117240,6;0,01565396
117256,9;0,01570528
117273,6;0,01568328
117290,1;0,01568328
117306,6;0,01563636
117323,2;0,01567742
117339,8;0,01567742
117356,8;0,01568622
117372,9;0,01573314
117389,5;0,01582551
117406;0,01615836
117422,6;0,01615396
117439,5;0,01612463
117455,7;0,01590029
117472,3;0,01608651
117488,9;0,01606598
117505,5;0,01621261
117522;0,01621261
117538,7;0,01622434
117555,1;0,01635337
117572,2;0,01641349
117588,4;0,01617742
117605;0,01617742
117621,4;0,01575953
117638,4;0,01583578
117654,9;0,01586657
117671,2;0,01584604
117687,7;0,01554839
117704,7;0,01536804
117721;0,01537243
117737,4;0,01536657
117754;0,01541056
117770,5;0,01551613
117787,1;0,0155
117803,6;0,0151261
117820,2;0,01505279
117836,8;0,01504692
117853,3;0,01500147
117869,9;0,01505132
117886,6;0,01517302
117903;0,01496921
117919,6;0,01490762
117936,2;0,01490762
117952,9;0,01503812
117969,3;0,01522287
117985,9;0,01523314
118002,5;0,01523314
118019;0,0151261
118035,7;0,01496334
118052,3;0,01478006
118068,8;0,01489883
118085,3;0,01489883
118102;0,01470235
118118,8;0,01470381
118135,3;0,01467302
118151,5;0,01467595
118168,4;0,01458065
118184,7;0,0145088
118201,2;0,01439589
118217,9;0,01433431
118234,4;0,01419355
118250,9;0,01428153
118267,5;0,01426686
118284,1;0,01421408
118300,6;0,01417449
118317,2;0,01415103
118333,8;0,0141173
118350,3;0,01425806
118367,5;0,01419941
118383,9;0,01412317
118400,9;0,01414223
118416,6;0,01414223
118433,2;0,01414809
118450,5;0,01408798
118466,3;0,01405425
118482,9;0,01402493
118499,6;0,0140132
118516,2;0,01401026
118532,7;0,01394575
118549,2;0,01397214
118566,4;0,01407478
118582,3;0,01417009
118598,8;0,01417009
118615,4;0,01421847
118632;0,01421847
118649;0,01425073
118665,1;0,01423314
118681,7;0,01429179
118698,3;0,01434018
118714,8;0,01444282
118731,4;0,01444282
118748,4;0,01449414
118764,5;0,01453372
118781,3;0,01457331
118797,6;0,01457185
118814,2;0,01457185
118831,1;0,01457331
118847,3;0,01472874
118863,9;0,01476833
118880,5;0,01476833
118897;0,01484018
118913,6;0,01488123
118930,2;0,01491496
118947;0,01494282
118963,3;0,01501906
118979,9;0,01505718
118996,4;0,01504839
119013,3;0,01505425
119030,4;0,01508358
119046,6;0,01509971
119062,8;0,01509824
119079,3;0,01517155
119096,1;0,01537243
119112,4;0,01541935
119129;0,01541789
119145,6;0,01540469
119162,6;0,01539883
119178,7;0,01528299
119195,2;0,01524047
119212,3;0,01516276
119228,4;0,01517009
119244,9;0,01514076
119261,5;0,01511877
119278,1;0,01515836
119295;0,0151437
119311,4;0,01521408
119327,8;0,01541496
119344,3;0,01543108
119360,9;0,01543108
119377,6;0,01519501
119394,7;0,0151393
119410,6;0,01515982
119427,7;0,01515982
119444,3;0,01518622
119460,3;0,01516422
119477,2;0,01513197
119493,4;0,0148827
119510;0,01483724
119527,2;0,0147566
119543,1;0,0147566
119559,7;0,01438563
119576,3;0,01429179
119593,5;0,01437683
119609,4;0,01437683
119626;0,01434164
119642,5;0,01422727
119659,2;0,01422434
119676,1;0,0142346
119692,2;0,0142346
119709;0,01421994
119725,4;0,01431672
119741,9;0,01440029
119759;0,01442522
119775,2;0,01440909
119791,8;0,01428446
119808,3;0,01429179
119825,5;0,01413636
119841,3;0,01410704
119857,9;0,01414809
119874,5;0,01414809
119891,3;0,01417155
119907,9;0,01414223
119924,6;0,01414223
119940,7;0,01420821
119957,3;0,01442962
119973,9;0,0142522
119990,8;0,01409384
120007,2;0,01408944
120023,6;0,01408944
120040,1;0,01408798
120056,8;0,01394135
120073,5;0,01388416
120089,8;0,01388416
120106,4;0,01398534
120123,4;0,01407771
120139,7;0,01407918
120156,1;0,01409384
120172,7;0,01409384
120189,2;0,01408065
120205,8;0,0142346
120222,7;0,0143607
120238,9;0,01447361
120255,5;0,01447214
120272,1;0,01440762
120288,6;0,01433724
120305,2;0,01435484
120321,8;0,01435484
120338,3;0,0143827
120354,9;0,01427126
120371,5;0,01429032
120388,1;0,01432551
120404,7;0,01433724
120421,3;0,01435484
120437,9;0,01431085
120454,3;0,01431085
120470,9;0,01430499
120487,4;0,01432551
120504;0,01432845
120520,7;0,01433138
120537,1;0,01433138
120553,7;0,01432845
120570,3;0,01433284
120587,2;0,01434457
120603,4;0,01431965
120620,3;0,01432991
120636,7;0,01431232
120653,1;0,01431232
120670,2;0,01429472
120686,2;0,01427713
120702,8;0,01448094
120719,4;0,01458504
120736,1;0,01458065
120752,5;0,01451466
120769,1;0,01453226
120785,9;0,01451026
120802,2;0,01451026
120818,8;0,0145176
120835,4;0,01454252
120851,9;0,01468328
120868,5;0,01468328
120885,1;0,01469795
120901,8;0,0146393
120918,2;0,01465982
120934,8;0,01473607
120951,3;0,01510411
120968,6;0,01507625
120984,4;0,01507625
121001;0,01509824
121017,6;0,01509824
121034,2;0,01516569
121050,7;0,01577419
121067,3;0,01581672
121083,8;0,01572287
121101,1;0,01563636
121117;0,01565396
121133,5;0,01544282
121150,1;0,01543695
121166,7;0,01546774
121183,5;0,01554692
121199,8;0,01554692
121217,3;0,01561144
121232,9;0,01569355
121249,5;0,01577419
121266,1;0,01577419
121282,6;0,01577419
121299,4;0,01573607
121316;0,01573167
121332,4;0,01566276
121349,7;0,01569355
121365,8;0,01563783
121382;0,01563636
121398,6;0,01561144
121415,2;0,01565689
121431,8;0,01566716
121448,3;0,01567302
121465,4;0,01629326
121481,4;0,01663343
121498,9;0,01663636
121514,7;0,01668915
121531,1;0,01675806
121547,7;0,01671554
121564,6;0,01671554
121580,9;0,01682991
121598,2;0,01678299
121614;0,01679325
121630,9;0,01691202
121647,6;0,01716276
121663,9;0,01714223
121680,2;0,01711584
121697,3;0,01709531
121713,8;0,01708065
121729,9;0,01700733
121746,5;0,0169912
121763,1;0,01700586
121779,6;0,01699853
121796,2;0,01707478
121812,8;0,01707478
121829,3;0,01708944
121845,9;0,01708944
121862,5;0,01722874
121879,7;0,01756598
121895,6;0,0176085
121912,5;0,01757331
121929,1;0,0177478
121945,3;0,01781818
121962,1;0,01782111
121978,7;0,01804985
121995,7;0,01815689
122011,6;0,01810997
122028,1;0,01813636
122044,7;0,01814223
122061,3;0,01830499
122078,7;0,01859384
122094,6;0,01878299
122111;0,018761
122127,8;0,01874487
122144,1;0,01877713
122160,7;0,01900293
122177,7;0,0191305
122193,8;0,0191305
122211;0,01902786
122227;0,01881085
122243,5;0,01881525
122260,1;0,01898094
122277,1;0,01927419
122299,7;0,0193783
122309,8;0,01938563
122326,5;0,01926979
122342,9;0,01928886
122359,5;0,01939736
122376;0,01948827
122392,6;0,01948827
122409,6;0,01957918
122426;0,01968915
122442,5;0,01982698
122458,9;0,01993548
122475,8;0,01993548
122492,6;0,02013196
122508,6;0,0203607
122525,1;0,02051173
122541,7;0,02053959
122558,6;0,02047507
122575;0,02042229
122591,4;0,02040469
122608;0,02040469
122624,7;0,02056745
122641,1;0,02057331
122657,7;0,02068768
122674,4;0,02065103
122690,8;0,02068475
122707,4;0,02064956
122723,9;0,02064956
122740,5;0,02053372
122757,3;0,02046774
122773,8;0,02044428
122790,2;0,0205044
122807,5;0,0205044
122824,1;0,02111584
122839,9;0,02107625
122856,5;0,02107625
122873;0,02078446
122889,6;0,02061437
122906,3;0,02055279
122922,7;0,02054985
122939,7;0,02054985
122955,9;0,02017449
122972,4;0,02022287
122989,6;0,02014516
123005,7;0,02014516
123022,2;0,01994721
123038,9;0,01956012
123055,3;0,01939736
123071,8;0,01941789
123088,4;0,01941056
123105;0,01941642
123121,5;0,01941642
123138,1;0,0193783
123154,7;0,01958358
123172;0,01962757
123187,9;0,01955132
123204,4;0,01968182
123220,9;0,01960264
123237,7;0,01960704
123254,8;0,01960704
123270,6;0,01957918
123287,2;0,01947947
123303,8;0,01957478
123320,3;0,01967155
123337,1;0,01967155
123353,8;0,01976686
123370;0,01981232
123386,9;0,01979326
123403,6;0,01982405
123419,7;0,01982405
123436,3;0,01972874
123452,9;0,01979326
123469,4;0,01963783
123486,2;0,01912023
123502,7;0,01905865
123519,7;0,01896041
123535,7;0,01903079
123552,3;0,0190088
123568,8;0,01903666
123586;0,01903079
123602,4;0,01905572
123618,6;0,01893548
123635,6;0,01884751
123651,7;0,01865249
123668,2;0,01870528
123685;0,01870528
123701,8;0,01917449
123718,2;0,01919062
123734,5;0,01919062
123751,2;0,01918475
123768;0,01918475
123784,2;0,01917009
123801,2;0,01896481
123817,3;0,01897654
123834,7;0,01899853
123850,5;0,01914223
123867,2;0,01893842
123883,6;0,01880645
123901,1;0,01852786
123916,8;0,01852786
123933,3;0,01827566
123949,9;0,018261
123966,5;0,01822581
123983,1;0,01837097
124000;0,01856158
124016,1;0,0186085
124032,7;0,0186085
124049,4;0,01856452
124065,8;0,01868035
124082,5;0,01873167
124099;0,01840323
124115,5;0,01833578
124132,1;0,01826833
124148,7;0,01817449
124165,2;0,01787537
124182;0,01783871
124199,1;0,01787097
124214,9;0,01784751
124231,9;0,01795601
124248,6;0,01824633
124264,6;0,01794575
124281,6;0,01789883
124297,8;0,01789883
124314,3;0,01785337
124330,9;0,01796481
124347,5;0,01789883
124364;0,01777126
124380,6;0,01777126
124397,3;0,01764223
124413,7;0,01765689
124430,3;0,01762757
124446,9;0,01739443
124463,5;0,017239
124480;0,0170088
124496,7;0,01679179
124513,6;0,016761
124529,7;0,0168915
124547;0,01682845
124562,8;0,01684164
124579,4;0,01682991
124596,3;0,01682991
124612,5;0,0167654
124629,1;0,01666569
124646,5;0,01660411
124662,3;0,0166173
124678,8;0,01667742
124695,4;0,01667742
124712;0,01662024
124728,5;0,01650587
124745,1;0,01659384
124761,6;0,01661437
124778,2;0,01657918
124795,3;0,01651026
124811,5;0,01615249
124827,9;0,01590909
124845,1;0,01598534
124861,1;0,01598387
124877,6;0,01603079
124894,2;0,01608211
124911,5;0,01603519
124927,7;0,01603519
124943,9;0,01589296
124960,4;0,01583431
124977,6;0,01583431
124993,6;0,01575807
125010,1;0,01589296
125026,7;0,01616276
125043,3;0,01616569
125060,3;0,01633578
125077,1;0,01673754
125093;0,01672874
125109,8;0,01668035
125126,1;0,01666276
125142,7;0,0166217
125159,2;0,01648974
125175,8;0,01654545
125192,4;0,01648827
125209;0,01648827
125225,5;0,01665396
125242,1;0,01665396
125258,6;0,01661877
125275,6;0,01661877
125291,9;0,0166129
125308,3;0,01657185
125324,9;0,0166349
125341,5;0,01653226
125358,5;0,01662757
125374,6;0,01662757
125391,2;0,01671554
125407,8;0,01696188
125424,3;0,01693402
125441,2;0,01681671
125457,6;0,01671114
125474;0,01658504
125490,9;0,01654399
125507,4;0,01652199
125523,7;0,01659824
125540,9;0,0166393
125556,8;0,01663343
125573,8;0,0168915
125590;0,01721701
125607;0,01721701
125623,1;0,01721701
125639,8;0,01730792
125656,3;0,01730792
125672,8;0,01727713
125689,4;0,017261
125706;0,01709384
125722,8;0,01697507
125739,1;0,01711877
125755,6;0,01729912
125772,8;0,01728006
125789,1;0,01723754
125805,7;0,01717889
125821,9;0,01702933
125838,5;0,01670235
125855;0,0166217
125871,6;0,01661437
125888,2;0,01662024
125905;0,01674194
125921,5;0,01690909
125938,3;0,01698094
125954,9;0,01687977
125971;0,01675073
125987,6;0,01655132
126004,1;0,01685044
126020,7;0,01685044
126037,3;0,01717742
126053,8;0,01713783
126070,4;0,01698534
126087;0,01666862
126103,5;0,01684018
126120,1;0,01687097
126136,7;0,01687097
126153,2;0,01711584
126169,8;0,01731965
126186,5;0,01736217
126202,9;0,01740176
126220,3;0,01751466
126236,1;0,01759091
126252,7;0,01777713
126269,2;0,0181393
126286,2;0,01817009
126302,5;0,01817889
126319,1;0,01818329
126335,5;0,01818182
126352;0,01840616
126368,6;0,01847214
126385,7;0,01842229
126402,3;0,01843108
126418,4;0,01843108
126434,9;0,01860704
126452,1;0,01884018
126468,3;0,01909971
126484,9;0,01909971
126501,1;0,01918915
126517,8;0,01904546
126534,3;0,01930352
126551;0,01930352
126567,4;0,01932111
126584;0,01941642
126600,5;0,01953079
126617,6;0,0196305
126633,7;0,019761
126650,2;0,01991202
126666,8;0,01995748
126683,7;0,02010704
126700;0,02019501
126716,5;0,02019208
126733,1;0,02018622
126750,2;0,02009091
126766,2;0,02015836
126782,8;0,02019648
126799,3;0,02022287
126815,9;0,02029325
126832,8;0,02014516
126849;0,02015396
126866;0,02025513
126882,2;0,02043988
126898,8;0,02043988
126915,3;0,02102053
126931,9;0,02101613
126948,6;0,02106892
126965;0,02106892
126981,9;0,02136217
126998,5;0,02139736
127014,7;0,02133578
127031,8;0,02140176
127048,2;0,02140176
127064,7;0,02136217
127081,1;0,02108651
127098,1;0,02116276
127114,1;0,02115396
127130,7;0,02115396
127147,2;0,02124633
127163,9;0,02124633
127181;0,02139589
127196,9;0,02129325
127213,8;0,02130792
127230,4;0,02137683
127246,6;0,02140323
127263,3;0,02139883
127279,8;0,02155132
127296,3;0,02157918
127312,9;0,02163783
127329,8;0,02163783
127346;0,0216173
127362,8;0,0215176
127379,2;0,02144575
127395,7;0,0213915
127412,4;0,02140029
127428,9;0,02122141
127446,1;0,02124487
127462;0,02122287
127478,6;0,0213915
127495,1;0,02184164
127512,3;0,02181525
127528,3;0,02181525
127545;0,02163197
127561,5;0,02157771
127578;0,02157771
127594,8;0,02143695
127611,1;0,02142375
127627,7;0,02089443
127644,2;0,02120821
127661,2;0,02146628
127677,6;0,02146628
127694,6;0,02196774
127710,6;0,02185484
127727,1;0,02167889
127743,6;0,02167595
127760,2;0,02154106
127777,3;0,02154106
127793,3;0,02156452
127809,9;0,02156012
127826,5;0,02163783
127843,8;0,02165689
127859,6;0,02165689
127876,2;0,0217698
127892,7;0,02182845
127909,3;0,02170968
127925,9;0,02170968
127942,5;0,02161877
127959;0,02142229
127975,6;0,02148387
127992,1;0,02155425
128008,7;0,02102493
128025,3;0,02098827
128042;0,02090616
128058,4;0,02091056
128075;0,02091056
128091,5;0,02092962
128108,1;0,02072141
128124,7;0,02068622
128141,5;0,02058358
128158,1;0,02058358
128174,4;0,02046921
128190,9;0,02043842
128207,5;0,02034311
128224,1;0,02025807
128240,6;0,02025807
128257,2;0,02005865
128273,8;0,01914663
128290,5;0,01916422
128306,9;0,0192346
128323,5;0,01912463
128340;0,01908358
128357,1;0,01908358
128373,8;0,01906305
128390;0,01906305
128406,3;0,01914516
128422,9;0,01895161
128439,5;0,01895161
128456;0,01865982
128472,8;0,01848974
128489,1;0,01843402
128505,8;0,01843842
128522,3;0,01842962
128539,5;0,01805572
128555,4;0,01805425
128572,8;0,01809824
128589,2;0,01820235
128605,1;0,0181261
128621,7;0,01799853
128638,5;0,01783578
128654,8;0,01776246
128671,4;0,0177566
128687,9;0,01756891
128704,5;0,01752786
128721,1;0,01734604
128737,6;0,01734018
128754,3;0,01728152
128771;0,01728446
128787,7;0,01732258
128804,2;0,01732991
128821;0,01736217
128837;0,01748827
128853,6;0,01748827
128870,4;0,01753226
128886,7;0,01753226
128903,3;0,01739003
128919,9;0,0173695
128936,5;0,01754985
128953,2;0,0173607
128969,6;0,0173607
128986,2;0,01733138
129003,1;0,01733138
129019,3;0,01715103
129035,8;0,01717742
129052,6;0,01714956
129069,4;0,01713197
129086,5;0,01714956
129102,1;0,01713783
129118,7;0,01712757
129135,2;0,01710557
129152,1;0,01703959
129168,4;0,01699853
129184,9;0,01693842
129202,1;0,01682258
129218,9;0,01672434
129234,6;0,01684457
129252;0,01690176
129267,8;0,01688416
129284,3;0,01686364
129300,9;0,01686364
129317,5;0,01685484
129334,6;0,01646481
129350,6;0,01645455
129367,2;0,01664956
129383,7;0,01671408
129400,9;0,0168607
129416,9;0,01686803
129433,6;0,01684897
129450,2;0,01684897
129466,8;0,01682111
129483,2;0,01667156
129499,7;0,01667156
129516,3;0,01652933
129532,8;0,01650733
129551,3;0,01648974
129566,3;0,01683138
129582,5;0,01685337
129599,1;0,01691789
129615,7;0,01691935
129632,2;0,01680499
129648,8;0,01653959
129665,6;0,01645748
129681,9;0,01609531
129698,5;0,01586657
129715,3;0,01586804
129731,7;0,01587243
129748,2;0,01587243
129765,3;0,01587977
129781,7;0,01620968
129798;0,01638416
129814,5;0,01660997
129831;0,01683871
129847,6;0,0168695
129864,4;0,01684164
129881,2;0,0167522
129897,7;0,01677273
129913,9;0,01677273
129930,8;0,01674487
129947,8;0,01676686
129963,9;0,01677273
129980,1;0,01672287
129996,7;0,01669062
130013,3;0,01659677
130029,8;0,01657185
130046,6;0,01655425
130063,2;0,01655425
130079,5;0,01665836
130096,1;0,01669648
130112,7;0,01669795
130129,9;0,01683138
130145,8;0,01693842
130162,4;0,01693842
130179,2;0,01693402
130195,5;0,01685191
130212,4;0,01685924
130228,6;0,01685924
130245,6;0,01687097
130261,8;0,01689296
130278,8;0,0168915
130294,9;0,01694282
130311,5;0,01694282
130328,3;0,01707038
130344,6;0,01722141
130361,2;0,01760997
130377,7;0,017739
130394,8;0,01773021
130411,3;0,01755425
130427,4;0,0175088
130444,6;0,01748241
130461,1;0,01748241
130477,9;0,01761144
130494,3;0,01771994
130510,7;0,01782258
130526,8;0,01782258
130543,5;0,01780645
130560;0,0177478
130577,4;0,01768475
130593,1;0,01737537
130609,7;0,01737537
130626,3;0,01741349
130643,6;0,01759824
130659,4;0,01769355
130675,9;0,01770381
130692,5;0,01770381
130709,2;0,017761
130725,9;0,01782405
130742,2;0,01805572
130759;0,01822141
130775,4;0,01822141
130792,2;0,01826833
130808,5;0,01826833
130825,4;0,01840029
130841,6;0,01839883
130858,3;0,01848094
130874,8;0,01827273
130891,3;0,01836657
130907,9;0,01822141
130924,5;0,01809238
130941;0,01812757
130957,6;0,01812757
130974,1;0,0181261
130991,2;0,01810704
131007,3;0,01802786
131024,2;0,01801906
131040,4;0,01801906
131057;0,01791056
131073,5;0,01789003
131090,1;0,01789296
131107,1;0,01785337
131123,3;0,0178607
131139,8;0,01781965
131156,4;0,01781965
131173,2;0,01775806
131189,5;0,01773314
131206,1;0,01770674
131223,2;0,01771114
131239,2;0,01737537
131255,8;0,01727273
131272,3;0,01720675
131289,1;0,01720675
131305,5;0,01717155
131322;0,01754839
131339,1;0,01760411
131355,2;0,01760411
131371,7;0,01754399
131388,6;0,01730938
131405;0,01725806
131421,6;0,01725806
131438;0,01721114
131454,6;0,01721114
131471,2;0,01706745
131487,7;0,01717889
131504,6;0,01724047
131520,8;0,01733871
131537,4;0,01743402
131554;0,01757038
131570,5;0,01721994
131587,4;0,01755425
131603,7;0,01754839
131620,2;0,0176217
131636,8;0,01780645
131653,4;0,01795748
131670,7;0,01803079
131687;0,01814516
131703,4;0,01814809
131719,6;0,01814516
131737,1;0,01816422
131752,8;0,01816422
131769,6;0,01816276
131785,9;0,01842375
131802,6;0,01839443
131819,3;0,01848094
131835,9;0,01836217
131852,5;0,0184912
131868,7;0,01869355
131885,3;0,01884018
131901,9;0,01878299
131919,2;0,01875367
131935;0,0187346
131951,6;0,018739
131968,8;0,01869795
131984,7;0,01869795
132001,3;0,01895455
132018,7;0,01942375
132034,4;0,01991642
132051,1;0,01991642
132067,5;0,01991642
132084,1;0,02020821
132101,1;0,02024487
132118,1;0,02058651
132133,9;0,02028153
132150,5;0,02027419
132167;0,02023754
132183,5;0,02022874
132200,1;0,02016569
132216,6;0,02013196
132233,5;0,02006158
132249,8;0,02006158
132266,3;0,02012463
132283,7;0,02012757
132305,4;0,02008798
132316;0,02005279
132332,9;0,02007185
132349,2;0,02007185
132365,8;0,01963197
132382,3;0,01963197
132399;0,01941202
132416,1;0,01946334
132432;0,01951026
132448,6;0,01953079
132465,3;0,01935191
132482,1;0,01935191
132498,3;0,01928153
132514,8;0,01921114
132531,7;0,01922874
132548,5;0,01919208
132565,3;0,01918768
132581,2;0,01913783
132597,7;0,01908504
132614,3;0,0189956
132631,1;0,01890176
132648,3;0,01877859
132664,1;0,01869795
132680,5;0,01865689
132697,1;0,01865689
132713,6;0,01864663
132730,2;0,01867449
132747,6;0,01850733
132763,3;0,01841349
132780,8;0,01820235
132796,5;0,01816715
132813;0,01806452
132830;0,01794721
132846,2;0,01792815
132862,8;0,01793842
132879,9;0,01789589
132895,9;0,01788417
132912,7;0,01800733
132929,2;0,01800733
132945,6;0,0178827
132962,1;0,01777419
132978,8;0,01778739
132995,4;0,01778739
133012,3;0,01760117
133028,4;0,01758651
133045;0,01757038
133061,5;0,01757038
133078,1;0,01760117
133094,7;0,01756745
133111,5;0,0176085
133127,8;0,01764809
133144,4;0,01759971
133160,9;0,01759824
133178;0,0176085
133194,1;0,0176261
133211,2;0,01756598
133227,2;0,01754692
133244,5;0,01754106
133260,3;0,01753959
133277;0,01752933
133294;0,01752933
133310;0,01755132
133326,9;0,01738123
133343,2;0,0173827
133359,8;0,01720821
133376,3;0,01700147
133392,9;0,01703812
133409,5;0,01696481
133426;0,01697361
133443,5;0,0169912
133460,1;0,01692815
133475,7;0,01679179
133492,3;0,01676686
133508,8;0,0167434
133525,7;0,01656158
133542,4;0,0161305
133558,5;0,01613636
133575,1;0,01596041
133591,9;0,01570968
133608,7;0,01571261
133624,8;0,01542082
133642;0,01535191
133657,9;0,01506158
133674,5;0,01499267
133691,1;0,01483871
133707,6;0,01480938
133724,2;0,01480938
133740,8;0,01455718
133757,5;0,01434018
133774,4;0,01393988
133790,8;0,01389736
133807;0,01367742
133823,6;0,01359238
133840,3;0,01359238
133856,7;0,01318915
133873,7;0,01291349
133889,9;0,01289003
133906,6;0,01287097
133923,2;0,01305425
133939,6;0,01322434
133956,2;0,01337537
133972,8;0,01337537
133989,9;0,01352346
134006;0,01355132
134022,4;0,01347507
134039,3;0,01332405
134055,6;0,01225806
134072,1;0,01191936
134088,7;0,01191202
134105,5;0,01195894
134122,2;0,01219648
134138,4;0,01223754
134154,9;0,01237097
134172,2;0,01237097
134188,1;0,0126129
134204,8;0,01278886
134221,2;0,01289736
134238;0,0130088
134254,4;0,01332845
134270,9;0,01334604
134287,5;0,01345015
134304;0,01342669
134320,6;0,01342669
134337,2;0,01320381
134353,7;0,01334457
134370,3;0,01337977
134386,9;0,01339736
134403,9;0,01339736
134420;0,01360557
134437;0,01360264
134453,1;0,01382991
134469,7;0,0141173
134486,3;0,01416129
134502,9;0,01420674
134519,8;0,0146437
134536,9;0,0146437
134552,8;0,0146129
134569,1;0,01462023
134585,7;0,01472727
134602,2;0,01490029
134618,8;0,01492082
134635,4;0,01501173
134652,1;0,0151173
134668,5;0,01510704
134685,1;0,01549853
134702;0,0156129
134718,2;0,01541056
134735;0,01541056
134751,7;0,01530205
134767,9;0,01540176
134785,1;0,01542229
134801;0,01542229
134817,6;0,0153695
134834,2;0,01553666
134850,7;0,01558798
134867,5;0,01586804
134884,1;0,01606012
134900,5;0,01600586
134917;0,01589296
134933,6;0,01585484
134950,8;0,01601026
134966,7;0,01623314
134983,3;0,0163607
134999,8;0,01646041
135016,4;0,01645161
135033;0,01633284
135049,5;0,01631085
135066,4;0,01631818
135082,7;0,01639589
135099,3;0,01641056
135116;0,01634751
135132,6;0,01634751
135149,2;0,01634751
135165,6;0,01641202
135182,4;0,0166261
135199,1;0,0166129
135215,2;0,01662024
135232;0,01663636
135248,3;0,01663636
135264,9;0,01667742
135281,5;0,01668328
135298,1;0,01673754
135314,8;0,01714516
135331,3;0,01710411
135348,1;0,01714956
135364,3;0,01747214
135380,9;0,01747214
135397,5;0,01755572
135414;0,01780499
135430,6;0,01808064
135447,1;0,01826246
135463,7;0,0186393
135480,7;0,01913343
135496,8;0,01917302
135513,4;0,01917302
135530;0,01915689
135546,5;0,01941936
135563,5;0,01958944
135579,9;0,01966129
135596,2;0,01967009
135612,8;0,01969795
135629,4;0,01966862
135646;0,01967595
135662,5;0,01969062
135679,1;0,01969062
135695,6;0,01993842
135712,5;0,02000147
135728,8;0,02004985
135745,3;0,02008798
135762,5;0,02008798
135778,6;0,02029619
135795;0,02033138
135812,1;0,0203651
135828,6;0,02040762
135845,1;0,02040762
135861,3;0,02071701
135877,9;0,02069062
135894,9;0,02069648
135911;0,02069355
135927,6;0,02066716
135945,5;0,02065103
135960,7;0,02058358
135977,3;0,02040762
135993,8;0,02043695
136010,4;0,02043695
136027;0,02087537
136043,5;0,02073314
136060,9;0,02078446
136076,7;0,02078446
136093,2;0,02065982
136110,3;0,02039589
136126,7;0,02041642
136142,9;0,02040762
136160,2;0,02040762
136176,1;0,02035191
136192,6;0,02031818
136209,3;0,02029912
136226;0,02011877
136242,5;0,02011877
136259,5;0,0199956
136276,4;0,01994135
136292,1;0,02003372
136308,6;0,02012317
136325,2;0,02011144
136341,9;0,02004692
136358,3;0,01967595
136374,9;0,01967595
136391,4;0,01969355
136408;0,01942815
136424,6;0,01937537
136441,1;0,01927419
136457,7;0,01912903
136474,3;0,01870381
136491,1;0,0184868
136507,6;0,01823021
136524;0,01800586
136540,5;0,018
136557,1;0,01797654
136573,8;0,0179824
136591;0,01803959
136606,9;0,01773167
136623,6;0,01749267
136640,3;0,01747361
136656,5;0,01747361
136673,1;0,01751026
136690,1;0,01751026
136706,2;0,01698974
136722,8;0,01701906
136739,6;0,01701906
136755,9;0,01689443
136772,8;0,01689443
136789,9;0,01681232
136810,8;0,01683138
136822,2;0,01667449
136838,7;0,01634311
136855,3;0,01634311
136871,9;0,01620821
136888,8;0,01578153
136905;0,01569062
136921,8;0,01562023
136938,1;0,01558944
136954,7;0,01525806
136971,3;0,01506158
136987,8;0,01506158
137004,5;0,01493695
137021;0,01495748
137037,5;0,01496188
137054,6;0,01495161
137070,7;0,01487683
137087,2;0,01481672
137103,8;0,01481672
137120,4;0,01481672
137136,9;0,01475806
137153,7;0,01465982
137170,2;0,01460264
137187,2;0,01456745
137203,2;0,01456745
137220,5;0,01449414
137236,3;0,01451613
137252,9;0,01445161
137269,5;0,01425513
137286;0,01411144
137302,6;0,01411144
137319,4;0,01393255
137335,7;0,01390616
137352,6;0,01381672
137369,4;0,01347801
137385,4;0,01346481
137402,8;0,01321114
137418,6;0,01314516
137435,7;0,01276246
137452;0,01262903
137468,3;0,0126085
137484,9;0,01178739
137501,4;0,01177713
137518;0,01175513
137535;0,01173021
137551,1;0,01160411
137567,7;0,01123754
137584,4;0,01123754
137601;0,01118035
137618,2;0,01118622
137633,9;0,01117889
137650,5;0,01118475
137667,2;0,01118622
137683,6;0,01108504
137700,4;0,01099707
137716,9;0,01096774
137733,3;0,01096774
137749,9;0,01087537
137766,6;0,01079326
137783;0,01069795
137799,9;0,01065103
137816,7;0,01065103
137832,7;0,0106349
137849,3;0,01063343
137866,3;0,01044721
137882,5;0,01023607
137899;0,01023607
137915,6;0,0102478
137932,1;0,009737536
137949;0,009696481
137965,5;0,009659824
137981,9;0,009551319
137998,4;0,008939883
138015;0,008866569
138032,2;0,008853372
138048,1;0,008863636
138064,7;0,008838709
138081,4;0,008790323
138097,8;0,008809384
138114,6;0,008807918
138131,1;0,008768328
138147,5;0,008705279
138164,2;0,008705279
138180,7;0,008285924
138197,2;0,008272727
138214,3;0,008250733
138230,4;0,008124634
138246,9;0,007947214
138263,8;0,007951613
138280;0,007719941
138296,8;0,007618769
138313,2;0,007618769
138330,1;0,007548387
138346,3;0,007545454
138363,5;0,007530792
138379,8;0,007498534
138396,4;0,00747654
138413;0,007451613
138429,1;0,007442815
138445,8;0,007439883
138462,3;0,007439883
138478,8;0,007447214
138496,2;0,007447214
138512;0,007491203
138528,5;0,007494135
138545,3;0,00747654
138561,7;0,007480938
138578,7;0,007431085
138594,8;0,007431085
138611,4;0,00743695
138628;0,007417889
138644,5;0,007406158
138661,1;0,007394428
138677,8;0,007348974
138694,2;0,007313783
138710,8;0,007288856
138727,3;0,007277126
138743,9;0,007277126
138760,5;0,007249267
138777;0,007306452
138793,6;0,007297654
138810,2;0,007284458
138827,5;0,007284458
138843,3;0,007296188
138859,9;0,00732698
138876,4;0,007348974
138893,5;0,007394428
138909,6;0,007382698
138926,1;0,007348974
138942,7;0,007356305
138959,3;0,007384164
138975,9;0,007378299
138992,7;0,007382698
139009,3;0,007372434
139025,5;0,007410557
139042,7;0,007403226
139059,2;0,00740176
139075,3;0,007417889
139092;0,007417889
139108,6;0,007467742
139124,9;0,007467742
139141,9;0,007467742
139158,1;0,007438417
139174,8;0,007417889
139191,2;0,007467742
139207,9;0,007501466
139224,3;0,007451613
139240,9;0,007439883
139257,5;0,007439883
139274;0,0075
139290,8;0,007561584
139307,2;0,007596774
139323,7;0,007604106
139340,3;0,007611437
139357,6;0,007629032
139373,6;0,007611437
139390,5;0,007601173
139406,9;0,007593842
139423,1;0,007630499
139439,7;0,007630499
139456,5;0,007645161
139473,3;0,007659824
139489,9;0,007659824
139507,4;0,007651026
139522,6;0,007624634
139539,1;0,007658358
139556,2;0,007674487
139572,2;0,007690616
139588,9;0,007690616
139605,7;0,007693549
139622;0,007706745
139639,1;0,007670088
139655,1;0,007599707
139672,2;0,007580645
139688,2;0,007585044
139705,5;0,007585044
139721,6;0,00757478
139737,9;0,00756305
139754,5;0,00756305
139771;0,00755132
139788,2;0,007548387
139804,6;0,007595308
139820,7;0,007589443
139837,5;0,007589443
139853,9;0,007567449
139870,8;0,007568915
139887;0,007589443
139903,6;0,007545454
139920,3;0,007505865
139937,5;0,0075
139954,1;0,007504399
139969,9;0,007535191
139986,4;0,00752346
140003;0,007514663
140019,9;0,007489736
140036,1;0,007472141
140053;0,007470674
140069,2;0,007470674
140086,2;0,007463343
140102,4;0,007409091
140118,9;0,007412023
140135,9;0,007410557
140152,1;0,007426686
140168,7;0,007431085
140185,2;0,007439883
140201,8;0,007412023
140218,3;0,007412023
140234,9;0,007384164
140251,5;0,007384164
140268,5;0,007332845
140284,6;0,007331378
140301,3;0,007325513
140318,1;0,007315249
140334,3;0,007315249
140351,1;0,007303519
140367,4;0,007304986
140384;0,007290323
140400,7;0,007290323
140419,6;0,007290323
140433,7;0,007372434
140450,6;0,0073739
140466,8;0,007304986
140484;0,007299121
140500,4;0,007310851
140516,5;0,007291789
140533,1;0,007284457
140549,7;0,007297654
140566,3;0,00735044
140582,8;0,007348974
140599,8;0,007312317
140616,3;0,007312317
140633;0,00732698
140649,6;0,007315249
140666,3;0,007319648
140682,2;0,007357772
140698,8;0,007387097
140715,4;0,007403226
140732,3;0,007398827
140748,8;0,00740176
140765,6;0,007332845
140781,6;0,007307918
140798,2;0,007302053
140814,9;0,007313783
140831,3;0,007319648
140848,4;0,007302053
140864,4;0,007291789
140881;0,007269795
140897,6;0,007269795
140914,4;0,007299121
140930,7;0,007313783
140947,3;0,007309384
140963,8;0,007302053
140980,4;0,007302053
140997,1;0,007325513
141013,7;0,007325513
141030,4;0,007318182
141047,1;0,007316716
141063,2;0,007378299
141080,2;0,007400293
141096,4;0,007387097
141113,6;0,007388563
141129,5;0,007398827
141146,2;0,007363637
141162,6;0,007363637
141179,6;0,007347507
141195,8;0,007260997
141212,6;0,007237537
141229,6;0,007274194
141245,5;0,007274194
141262;0,007228739
141278,8;0,00717302
141295,2;0,007153959
141312,3;0,007140763
141328,3;0,007148094
141344,9;0,007131965
141361,4;0,00713783
141378,1;0,00713783
141394,8;0,007121701
141411,1;0,007151026
141427,7;0,00714956
141444,3;0,007095308
141460,8;0,007101173
141477,4;0,00706305
141494,4;0,00706305
141510,9;0,007060118
141527,1;0,007190616
141543,7;0,007142229
141560,5;0,007151026
141577;0,007151026
141594;0,00714956
141610;0,007155425
141626,5;0,007123167
141643,3;0,007148094
141660,2;0,007148094
141676,5;0,007181818
141692,8;0,007206745
141709,3;0,007131965
141726;0,007151026
141742,9;0,007177419
141759,5;0,007158358
141776,1;0,007158358
141792,9;0,007099707
141808,7;0,007120235
141825,3;0,007111437
141841,9;0,007109971
141858,4;0,007102639
141875,5;0,007083578
141891,6;0,007071848
141908,1;0,007071848
141925,2;0,007139296
141941,3;0,007228739
141957,9;0,0072478
141974,5;0,007241935
141991;0,007240469
142007,5;0,007341642
142024,1;0,007343109
142041;0,007376833
142057,7;0,007381232
142073,8;0,007381232
142090,4;0,007354839
142107,4;0,007387097
142123,6;0,007375367
142140,1;0,007394428
142156,6;0,007394428
142173,3;0,007387097
142189,8;0,007392962
142206,3;0,007391496
142222,9;0,007387097
142239,5;0,007458944
142256,2;0,007467742
142272,6;0,007492669
142289,5;0,007492669
142306,3;0,007505865
142322,3;0,007456012
142338,9;0,007456012
142355,6;0,007475073
142372;0,007439883
142388,6;0,007397361
142405,7;0,007397361
142422;0,007366569
142438,7;0,007395895
142454,8;0,007376833
142471,8;0,007394428
142488;0,007394428
142504,7;0,007431085
142521,3;0,007428152
142537,7;0,007429619
142554,2;0,007414956
142571;0,007372434
142587,7;0,007381232
142603,9;0,007400293
142620,5;0,007400293
142637,9;0,007414956
142653,9;0,007400293
142670,2;0,007348974
142686,9;0,007348974
142703,3;0,007344575
142719,9;0,007363637
142736,5;0,007328446
142753;0,007359237
142769,6;0,007347507
142787;0,007363637
142803;0,007360704
142819,9;0,007360704
142836;0,007353372
142852,4;0,007321115
142869;0,007310851
142886,1;0,007302053
142902,3;0,007294721
142918,8;0,007303519
142935,5;0,007303519
142952,3;0,007290323
142968,4;0,007290323
142985,4;0,007253666
143001,5;0,007265396
143018,1;0,00723607
143034,7;0,007222874
143051,2;0,007164223
143067,8;0,007162757
143084,6;0,007193549
143100,9;0,00720088
143117,7;0,007193549
143134,1;0,007193549
143151,3;0,007181818
143167,4;0,00721261
143183,8;0,00721261
143200,5;0,007237537
143217,1;0,007268329
143233,7;0,007243402
143250,1;0,007255132
143266,7;0,007250733
143283,4;0,007250733
143299,8;0,007250733
143316,3;0,007255132
143332,9;0,007272727
143349,5;0,007316716
143366,1;0,007325513
143382,6;0,007375367
143399,2;0,00740176
143415,8;0,007400293
143432,3;0,00741349
143448,8;0,007419355
143465,4;0,007441349
143482;0,007461877
143498,9;0,007469208
143515,3;0,007381232
143531,7;0,007322581
143548,2;0,007315249
143565,7;0,007334311
143581,5;0,007334311
143598,3;0,007331378
143614,5;0,007322581
143631,6;0,007347507
143647,8;0,007318182
143664,4;0,007293255
143680,8;0,007285924
143697,3;0,007328446
143713,9;0,007340176
143730,6;0,007346041
143747;0,007368035
143763,9;0,00740176
143780,2;0,007395895
143796,8;0,007395895
143813,6;0,007403226
143830;0,007416422
143846,5;0,007412023
143863,7;0,007438417
143879,6;0,007420821
143896,1;0,007416422
143912,7;0,007419355
143929,9;0,007359237
143945,8;0,007260997
143962,4;0,007291789
143979;0,007277126
143996;0,007250733
144012,1;0,007250733
144029,2;0,007186217
144045,5;0,007143695
144061,8;0,007120235
144078,5;0,007093842
144095,6;0,007093842
144111,5;0,007082112
144128,1;0,007082112
144144,6;0,007183284
144161,2;0,007158358
144177,9;0,007139296
144194,6;0,007114369
144210,9;0,007124634
144227,6;0,007124634
144244;0,007124634
144261,4;0,007064516
144277,2;0,007042522
144293,7;0,007127566
144310,3;0,007139296
144326,9;0,0071261
144343,4;0,007139296
144360,1;0,007139296
144377,3;0,007148094
144393,1;0,007146628
144409,7;0,007195015
144426,3;0,007218475
144442,8;0,007262463
144459,4;0,007359237
144476;0,007370968
144492,5;0,007453079
144509,5;0,00743695
144525,9;0,00743695
144542,3;0,007489736
144559,4;0,007533724
144575,4;0,007532258
144591,9;0,00751173
144608,5;0,00751173
144625,3;0,007479472
144641,9;0,007480938
144658,2;0,007510264
144674,8;0,007510264
144691,3;0,007504399
144707,9;0,007497068
144725,1;0,007507332
144741,5;0,007507332
144757,6;0,00755132
144774,7;0,007567449
144790,7;0,007571848
144807,9;0,007607038
144823,9;0,007571848
144840,4;0,007573314
144857;0,007573314
144873,6;0,007577713
144890,1;0,00757478
144907,5;0,007548387
144923,3;0,007557185
144939,8;0,007549854
144956,4;0,00761437
144973,2;0,007602639
144989,5;0,007582112
145006,3;0,007570381
145022,7;0,007595308
145039,7;0,007583578
145056;0,007577713
145072,7;0,007546921
145089,3;0,007546921
145106,3;0,007583578
145122,6;0,007585044
145138,6;0,007602639
145155,9;0,007612903
145171,8;0,007611437
145188,4;0,007612903
145205,2;0,00759824
145221,5;0,00759824
145238;0,007612903
145254,8;0,007612903
145271,2;0,007609971
145288,1;0,007611437
145304,3;0,007605572
145321,4;0,007608505
145337,4;0,007608505
145354;0,007543989
145370,6;0,007508798
145387,3;0,007451613
145403,7;0,007447214
145420,3;0,007420821
145437,5;0,007426686
145453,4;0,007434017
145470,4;0,00744868
145486,5;0,007457478
145503,4;0,007485338
145519,7;0,007485338
145536,8;0,007485338
145552,8;0,007526393
145569,4;0,007494135
145586,3;0,007516129
145602,9;0,00751173
145619,1;0,007561584
145636,5;0,007570381
145652,2;0,007558651
145668,8;0,007573314
145685,6;0,007595308
145701,9;0,007595308
145718,8;0,00763783
145735;0,007608505
145751,6;0,007602639
145768,2;0,007595308
145784,7;0,007615836
145802;0,007639296
145817,9;0,007658358
145834,4;0,007667155
145851,3;0,007651026
145867,6;0,0076261
145884,1;0,007643695
145900,7;0,007643695
145917,5;0,00763783
145933,9;0,007648094
145950,9;0,007612903
145967;0,00763783
145983,6;0,007674487
146000,2;0,007668622
146016,7;0,007703812
146033,3;0,007734604
146050,2;0,007734604
146066,4;0,007765396
146083;0,007784457
146099,5;0,007784457
146116,7;0,007784457
146132,6;0,007784457
146149,3;0,007727273
146166,3;0,007727273
146182,3;0,007706745
146198,9;0,007695015
146216,4;0,007699414
146232;0,007749267
146248,6;0,007794722
146265,3;0,007769795
146281,8;0,007717009
146298,4;0,007717009
146315,2;0,007741936
146331,4;0,007721408
146348;0,007740469
146364,6;0,007760997
146381,1;0,007753666
146397,7;0,007755132
146414,5;0,007714076
146430,8;0,007690616
146447,4;0,007668622
146464,1;0,007601173
146480,5;0,007475073
146497,1;0,007480938
146514;0,007480938
146530,5;0,007480938
146547,3;0,007429619
146563,4;0,007417889
146579,9;0,007417889
146596,5;0,00740176
146613,6;0,007414956
146630;0,007397361
146646,5;0,007397361
146662,8;0,007414956
146679,3;0,00741349
146696,1;0,007483871
146712,5;0,007469208
146729;0,007469208
146745,6;0,007447214
146762,3;0,007456012
146778,8;0,007456012
146795,3;0,00740176
146811,9;0,00740176
146828,5;0,007392962
146845;0,007372434
146861,9;0,007394428
146878,6;0,007390029
146894,7;0,007376833
146912,1;0,00736217
146927,8;0,007375367
146944,6;0,007372434
146961;0,007335777
146977,5;0,007419355
146994,1;0,007467742
147010,8;0,007479472
147027,2;0,007492669
147044,3;0,007520528
147060,6;0,007532258
147077,2;0,007532258
147093,5;0,007536657
147110,6;0,00744868
147126,9;0,00744868
147143,2;0,007460411
147159,8;0,007460411
147176,3;0,007567449
147192,9;0,007557185
147209,7;0,007545454
147226,3;0,007620235
147243,1;0,007621701
147259,5;0,007615836
147275,7;0,007615836
147292,3;0,007602639
147309;0,007609971
147325,9;0,007617302
147342;0,007615836
147358,6;0,007615836
147375,6;0,007629032
147392,1;0,007658358
147408,3;0,007658358
147424,8;0,007646628
147441,4;0,007681818
147458;0,007653959
147474,9;0,007615836
147491,1;0,007514663
147507,7;0,007533724
147524,2;0,00752346
147540,8;0,007533724
147557,4;0,007519062
147573,9;0,007589443
147590,5;0,007568915
147607,1;0,007568915
147623,7;0,00752346
147640,2;0,007508798
147656,8;0,007529326
147673,3;0,00752346
147690,4;0,00752346
147706,6;0,007441349
147723;0,007435484
147739,9;0,007438417
147756,5;0,007453079
147772,7;0,007475073
147789,3;0,007417889
147805,9;0,007419355
147822,8;0,007391496
147839,5;0,007391496
147855,7;0,007375367
147872,1;0,007360704
147888,7;0,007407625
147905,3;0,007416422
147921,8;0,007406158
147938,5;0,007388563
147955;0,007398827
147971,8;0,007398827
147988,1;0,007370968
148004,7;0,007370968
148021,2;0,007344575
148037,8;0,007340176
148054,4;0,007340176
148070,9;0,007343109
148087,5;0,007334311
148104,1;0,007343109
148120,6;0,007354839
148137,7;0,007354839
148154,6;0,007369502
148170,3;0,007390029
148187,2;0,007384164
148203,6;0,007368035
148220;0,007368035
148236,6;0,007343109
148253,5;0,007290323
148270;0,007316716
148286,3;0,007316716
148303,4;0,00727566
148319,6;0,007246335
148338;0,007230205
148352,8;0,007228739
148369,1;0,007233138
148386;0,007256598
148402,7;0,007211144
148418,8;0,007211144
148435,4;0,007214076
148452;0,00721261
148469,1;0,007221408
148485,3;0,007221408
148501,7;0,007228739
148518,6;0,007285924
148534,8;0,007258065
148551,7;0,007258065
148568;0,007258065
148585,3;0,007281525
148601,1;0,007299121
148617,6;0,007304986
148634,2;0,007353372
148651;0,007375367
148667,4;0,007347507
148683,9;0,007381232
148700,5;0,007304986
148717;0,007304986
148733,6;0,00732698
148750,6;0,007379766
148766,7;0,007370968
148783,3;0,007412023
148799,9;0,007419355
148816,5;0,007391496
148833,3;0,007423754
148849,6;0,007423754
148866,3;0,007494135
148883,3;0,007494135
148899,9;0,007527859
148916,3;0,007539589
148932,4;0,007539589
148949,7;0,007590909
148965,5;0,007590909
148982,1;0,007526393
148998,7;0,00755132
149015,2;0,007502933
149031,8;0,007527859
149048,4;0,00752346
149065,2;0,007498534
149081,5;0,007532258
149098,1;0,007601173
149115;0,007595308
149131,2;0,007595308
149147,8;0,007642229
149164,3;0,007624634
149180,9;0,007521994
149197,5;0,00756305
149214;0,007546921
149230,9;0,007478006
149247,2;0,007460411
149263,7;0,007460411
149280,4;0,007461877
149296,9;0,007478006
149313,9;0,007451613
149330;0,007451613
149346,6;0,007464809
149363,1;0,007464809
149379,7;0,007470675
149396,3;0,007441349
149413;0,007416422
149429,4;0,007442815
149446;0,007428152
149462,6;0,007456012
149479,1;0,007456012
149495,7;0,00751173
149512,2;0,007529326
149528,8;0,007524927
149545,4;0,007536657
149561,9;0,007602639
149578,9;0,007602639
149595,3;0,00758651
149611,6;0,007609971
149628,4;0,00763783
149645,5;0,007648094
149661,7;0,0076261
149677,9;0,007631965
149694,5;0,007631965
149711;0,007706745
149727,6;0,007736071
149744,4;0,007725806
149760,9;0,007696481
149777,3;0,007668622
149793,9;0,007643695
149810,4;0,007643695
149827;0,007645161
149843,6;0,007618769
149860,5;0,007621701
149876,7;0,00759824
149893,3;0,00759824
149909,8;0,007607038
149926,4;0,007607038
149943;0,007656891
149959,5;0,007653959
149976,1;0,007653959
149992,7;0,0076261
150009,2;0,0076261
150026,5;0,007609971
150042,4;0,007565983
150059,4;0,007573314
150075,5;0,007573314
150092,1;0,007543989
150108,6;0,007558651
150125,2;0,007565983
150141,8;0,007554252
150158,9;0,007521994
150175,1;0,007533724
150192;0,007555719
150208;0,007546921
150224,6;0,007504399
150241,2;0,00752346
150257,7;0,007543989
150274,8;0,007530792
150290,9;0,007535191
150307,4;0,007571848
150324;0,007576246
150341,2;0,00757478
150357,3;0,007555719
150373,7;0,007561584
150391,2;0,007561584
150406,8;0,00761437
150423,4;0,007658358
150440,2;0,007639296
150456,5;0,007620235
150473,1;0,007611437
150489,7;0,007684751
150506,4;0,007684751
150522,8;0,007599707
150539,4;0,007607038
150555,9;0,007567449
150572,5;0,007571848
150589,1;0,007561584
150605,6;0,007558651
150622,7;0,007558651
150638,8;0,007552786
150655,3;0,007552786
150672;0,007510264
150688,5;0,007460411
150705;0,007444282
150721,6;0,007445748
150738,2;0,007479472
150754,8;0,00748827
150772;0,00748827
150788;0,007464809
150804,4;0,007458944
150821;0,007456012
150837,6;0,007398827
150854,2;0,007404692
150870,7;0,007431085
150887,3;0,007400293
150903,8;0,007397361
150920,4;0,007403226
150937,2;0,007356305
150953,6;0,007304986
150970,4;0,00732698
150986,7;0,007307918
151003,2;0,007296188
151019,9;0,00727566
151036,4;0,00726393
151053,6;0,007241935
151069,9;0,007202346
151086,1;0,007178886
151102,6;0,00714956
151120,2;0,007130499
151136,1;0,007112904
151152,4;0,007120235
151169;0,007136364
151185,5;0,007130499
151202;0,007159824
151218,6;0,007234604
151235,3;0,007217009
151251,8;0,007217009
151268,3;0,00718915
151284,9;0,00718915
151301,5;0,007206745
151318;0,007205279
151334,6;0,00723607
151351,2;0,007234604
151367,7;0,007219941
151384,3;0,007230205
151401;0,007230205
151417,4;0,007256598
151434,7;0,007256598
151450,5;0,007284458
151467,7;0,007291789
151483,7;0,007291789
151500,6;0,007268329
151517;0,007230205
151533,5;0,007269795
151549,9;0,007334311
151566,9;0,007290323
151583,1;0,007272727
151599,8;0,007272727
151616,2;0,007291789
151632,8;0,007309384
151650,2;0,007331378
151665,9;0,007365103
151682,5;0,007365103
151699;0,007316716
151715,6;0,007280059
151732,2;0,007280059
151748,7;0,007280059
151765,6;0,007307918
151781,9;0,007331378
151798,5;0,007394428
151815;0,007406158
151831,6;0,007420821
151848,1;0,007464809
151864,7;0,007489736
151881,3;0,007489736
151897,8;0,007507332
151914,4;0,007507332
151931;0,007517595
151947,9;0,007497068
151964,1;0,007435484
151981,1;0,007422287
151997,2;0,007435484
152013,8;0,007438417
152030,4;0,007483871
152046,9;0,007483871
152063,8;0,007472141
152080,1;0,007510264
152096,6;0,007557185
152113,3;0,007573314
152129,8;0,007543989
152146,5;0,007565983
152163;0,007565983
152179,5;0,007589443
152196,3;0,007592375
152212,6;0,007587977
152229,2;0,007639296
152246,2;0,007634897
152262,8;0,007636364
152278,9;0,007621701
152296,2;0,007624634
152312;0,007585044
152328,6;0,00761437
152345,3;0,007607038
152361,7;0,007631965
152378,4;0,007580645
152395;0,007521994
152411,6;0,007521994
152428;0,007461877
152444,5;0,00748827
152461,8;0,00748827
152477,7;0,007466276
152494,3;0,007494135
152510,8;0,007516129
152527,4;0,007517595
152543,9;0,007517595
152560,5;0,007517595
152577,1;0,007507332
152593,6;0,00755132
152610,2;0,007605572
152626,8;0,007592375
152643,7;0,007611437
152660,7;0,007611437
152676,5;0,007596774
152693;0,00759824
152709,6;0,007587977
152726,3;0,007557185
152747,7;0,007533724
152759,3;0,007504399
152775,9;0,007495601
152792,4;0,007583578
152809,3;0,007590909
152825,6;0,007587977
152842,1;0,007592375
152858,7;0,007536657
152875,3;0,007564516
152891,8;0,007564516
152908,4;0,007516129
152925,1;0,007539589
152941,5;0,007561584
152958,1;0,007579179
152974,8;0,007546921
152991,6;0,007501466
153007,8;0,007514663
153024,4;0,007545454
153041,1;0,007561584
153057,5;0,007579179
153074,3;0,007593842
153090,6;0,007608505
153107,2;0,007612903
153123,8;0,007579179
153140,3;0,007545454
153156,9;0,007539589
153173,5;0,007539589
153190,2;0,007529326
153206,6;0,007529326
153223,2;0,007495601
153240,5;0,007486803
153256,3;0,007497068
153272,9;0,007497068
153290,1;0,007458944
153306,2;0,007458944
153322,6;0,007502933
153339,1;0,007497068
153355,8;0,007497068
153372,5;0,007549854
153389,1;0,007524927
153405,4;0,007526393
153422;0,007486803
153438,5;0,007502933
153455,1;0,007448681
153471,7;0,007504399
153488,5;0,007494135
153504,8;0,007489736
153521,4;0,007489736
153538,2;0,007369502
153555,1;0,00735044
153571,1;0,007343109
153587,6;0,007306452
153604,2;0,007230205
153627,4;0,00727566
153637,4;0,007249267
153653,9;0,007228739
153670,5;0,007228739
153687;0,007241935
153704,3;0,007246335
153720,9;0,007246335
153736,7;0,007228739
153753,3;0,007217009
153769,9;0,00722434
153786,4;0,007203812
153803,3;0,007215543
153819,8;0,007192082
153836,5;0,007173021
153853,2;0,007173021
153869,3;0,007221408
153886,3;0,007221408
153902,4;0,007142229
153919,4;0,007133431
153935,6;0,007142229
153952,3;0,007156892
153968,7;0,007120235
153985,5;0,007120235
154001,8;0,007120235
154018,4;0,007153959
154034,9;0,007109971
154051,5;0,007096774
154068,1;0,007089443
154084,6;0,007041056
154101,2;0,006973607
154117,8;0,006978006
154135,2;0,006994135
154150,9;0,006944282
154167,5;0,00692522
154184;0,00692522
154200,6;0,006941349
154217,2;0,007045455
154233,7;0,007026393
154250,7;0,007007332
154267,8;0,007029326
154283,4;0,007030792
154300;0,007
154316,6;0,007092375
154333,4;0,007098241
154349,9;0,007073314
154366,8;0,007080645
154382,9;0,007080645
154399,4;0,007153959
154416;0,007151026
154432,6;0,007174487
154449,1;0,007159824
154466;0,007148094
154482,4;0,007148094
154498,8;0,007148094
154515,5;0,007102639
154532,7;0,007048387
154548,5;0,007035191
154565,1;0,007041056
154581,8;0,007042522
154598,2;0,007030792
154614,8;0,007029326
154631,9;0,007042522
154647,9;0,00706305
154665;0,007058651
154681,2;0,007058651
154697,6;0,007049853
154714,2;0,007054252
154730,8;0,007058651
154747,3;0,007093842
154764;0,007093842
154780,9;0,007039589
154797;0,007043988
154813,7;0,007026393
154830,1;0,007042522
154846,7;0,007027859
154863,3;0,006995601
154880,3;0,006995601
154896,4;0,006966276
154913;0,006967742
154929,5;0,006973607
154946,1;0,00697654
154962,9;0,00697654
154979,2;0,006985337
154996,1;0,006963343
155013,1;0,006982405
155029,7;0,006989736
155045,5;0,006982405
155062,5;0,006994135
155078,6;0,006975073
155095,3;0,006975073
155111,8;0,006975073
155128,7;0,006986803
155145;0,006997067
155161,5;0,00701173
155178;0,007038123
155194,6;0,007035191
155211,6;0,00701173
155227,7;0,006989736
155244,3;0,006983871
155260,9;0,007005865
155277,4;0,006967742
155294,2;0,006983871
155310,6;0,006969208
155327,2;0,006972141
155343,7;0,006910557
155361,1;0,006910557
155377;0,006900293
155393,7;0,006891496
155410,6;0,006931085
155426,5;0,006931085
155443,6;0,006932552
155459,7;0,006922287
155476,2;0,006884164
155492,8;0,006869501
155509,4;0,006897361
155526,2;0,00693695
155542,5;0,006914956
155559,7;0,006897361
155575,7;0,006920821
155592,4;0,006935484
155608,8;0,006966276
155625,3;0,006941349
155642,5;0,006872434
155658,6;0,006851906
155675;0,006851906
155691,6;0,006863636
155708,2;0,006832845
155724,7;0,00681525
155741,3;0,006794721
155757,9;0,006794721
155774,7;0,00682698
155791,3;0,006822581
155807,6;0,006809384
155824,1;0,006825513
155841,1;0,006809384
155857,3;0,006812317
155874;0,006812317
155890,5;0,006841642
155907;0,006857771
155923,5;0,006895895
155940,1;0,006932552
155956,7;0,006939883
155973,4;0,006995601
155989,9;0,006986803
156006,4;0,00697654
156022,9;0,00697654
156039,7;0,006982405
156056,8;0,006991202
156073,2;0,007002932
156089,2;0,007041056
156105,8;0,00705132
156122,5;0,00707478
156138,9;0,007107038
156155,5;0,007140763
156172,6;0,007155425
156188,9;0,007145161
156205,2;0,007038123
156222;0,007055718
156238,3;0,007038123
156255,4;0,007026393
156275,3;0,007032258
156288;0,007085044
156304,6;0,007070381
156321,1;0,007005865
156337,7;0,006995601
156354,4;0,006970675
156371,4;0,006973607
156387,4;0,006944282
156404,5;0,006944282
156421,3;0,006932552
156437,7;0,006985337
156453,7;0,006973607
156470,7;0,006998534
156486,8;0,006998534
156503,8;0,006963343
156519,9;0,006969208
156536,5;0,006997067
156553,1;0,007020528
156569,7;0,00698827
156586,2;0,007033724
156603,1;0,007107038
156619,4;0,007124634
156636,1;0,007090909
156652,7;0,007089443
156669;0,007087977
156685,8;0,007102639
156702,4;0,007120235
156718,7;0,007120235
156735,3;0,007115836
156751,9;0,007076246
156768,4;0,007087977
156785;0,007087977
156801,6;0,007099707
156818,6;0,007098241
156834,8;0,007098241
156851,3;0,007098241
156867,8;0,007118769
156884,5;0,007181818
156901,2;0,007186217
156917,8;0,007192082
156934,1;0,007192082
156950,8;0,007195015
156967,2;0,007195015
156984,2;0,007187684
157000,4;0,00720088
157017,2;0,00720088
157033,5;0,007184751
157050,2;0,007184751
157066,9;0,007143695
157083,8;0,00713783
157099,8;0,007123167
157116,9;0,007082112
157133;0,007082112
157149,5;0,007127566
157166,4;0,007108504
157183,5;0,007111437
157199,2;0,007120235
157215,8;0,007120235
157232,6;0,007099707
157248,9;0,007109971
157265,5;0,007083578
157282;0,007105572
157298,6;0,007102639
157315,1;0,007114369
157331,7;0,007118769
157348,6;0,007092375
157364,9;0,007085044
157381,8;0,007112904
157398;0,007177419
157414,7;0,007177419
157431,1;0,007164223
157447,7;0,007133431
157464,2;0,007162757
157480,8;0,007178886
157497,4;0,007178886
157514,6;0,007217009
157530,8;0,007228739
157547,1;0,007234604
157563,6;0,007241935
157580,2;0,00728739
157597;0,007269795
157613,4;0,007277126
157629,9;0,007282991
157646,5;0,007312317
157663;0,007312317
157679,6;0,007321115
157696,3;0,007310851
157712,7;0,007329912
157729,3;0,007353372
157745,9;0,007353372
157762,6;0,007356305
157779,2;0,007335777
157795,6;0,007316716
157812,2;0,007316716
157829,3;0,007306452
157845,3;0,007284458
157861,8;0,007307918
157878,4;0,007307918
157895;0,007269795
157911,5;0,007234604
157928,2;0,007233138
157945,3;0,007177419
157961,6;0,007177419
157977,9;0,007177419
157994,4;0,007123167
158010,9;0,007131965
158027,7;0,007192082
158044,2;0,007174487
158060,6;0,007205279
158077,2;0,007239003
158094;0,0072522
158110,3;0,0072522
158126,9;0,007219941
158143,5;0,007215543
158160;0,007233138
158176,9;0,007233138
158193,4;0,007219941
158210,5;0,007269795
158226,3;0,007274194
158242,9;0,007271261
158259,6;0,00726393
158276;0,007296188
158292,6;0,007296188
158309,3;0,007246335
158325,9;0,007246335
158342,3;0,007262463
158358,9;0,007346041
158375,4;0,007385631
158392;0,007353372
158408,5;0,007303519
158425,2;0,007321115
158441,9;0,007313783
158458,2;0,007313783
158474,8;0,00732698
158491,9;0,007318182
158507,9;0,00732698
158524,6;0,007319648
158541,2;0,007315249
158557,7;0,007299121
158574,2;0,007299121
158590,9;0,007259531
158607,3;0,007197947
158623,9;0,007222874
158640,5;0,007282991
158657;0,007282991
158674,2;0,00727566
158690,2;0,007266862
158707,2;0,007293255
158723,9;0,0072522
158739,9;0,007288856
158756,4;0,007316716
158773;0,007318182
158789,6;0,007281525
158806,3;0,007281525
158822,7;0,007329912
158839,3;0,007316716
158855,8;0,007316716
158872,4;0,007302053
158889,1;0,00728739
158905,5;0,00728739
158922,1;0,007300586
158938,7;0,007302053
158955,2;0,007299121
158971,8;0,00727566
158988,4;0,007285924
159004,9;0,007240469
159022,1;0,007258065
159038,1;0,007282991
159054,7;0,007262463
159071,2;0,007262463
159087,8;0,007282991
159104,3;0,007282991
159120,9;0,007256598
159137,5;0,007259531
159154,3;0,007227273
159171,1;0,007196481
159187,4;0,00718915
159204;0,007214076
159220,8;0,007181818
159237;0,007186217
159253,5;0,00720088
159270,2;0,007234604
159286,7;0,007240469
159303,3;0,007240469
159319,8;0,007260997
159336,9;0,007260997
159352,8;0,007299121
159369,4;0,007331378
159386;0,007310851
159402,9;0,007316716
159419,2;0,007316716
159435,9;0,007310851
159452,2;0,007303519
159468,8;0,007266862
159485,8;0,007266862
159501,9;0,007266862
159518,5;0,007302053
159535,1;0,007280059
159551,6;0,007256598
159568,2;0,007266862
159585;0,007266862
159601,3;0,007250733
159618,4;0,007240469
159634,5;0,007271261
159651,2;0,00727566
159667,6;0,00727566
159684,2;0,007294721
159701;0,007282991
159717,5;0,007284457
159734,8;0,007281525
159750,4;0,007304986
159767;0,007382698
159783,7;0,007416422
159800,1;0,007409091
159817,1;0,007409091
159833,3;0,007429619
159849,8;0,007445748
159866,4;0,007429619
159883,6;0,007409091
159899,5;0,007409091
159916,1;0,007482405
159932,7;0,007539589
159949,5;0,007516129
159965,9;0,007516129
159982,8;0,007526393
159999,4;0,007538123
160015,5;0,007492669
160032,4;0,007482405
160048,6;0,007498534
160065,2;0,007470674
160081,8;0,007407625
160098,3;0,007407625
160115,5;0,007359237
160131,7;0,007359237
160148,5;0,007365103
160164,9;0,007400293
160181,4;0,007388563
160198,4;0,007390029
160214,4;0,007390029
160230,9;0,007403226
160247,4;0,007403226
160264;0,00744868
160280,6;0,00742522
160297,7;0,007439883
160313,7;0,00741349
160330,9;0,007417889
160346,8;0,007398827
160363,8;0,007398827
160380,2;0,007398827
160396,5;0,007382698
160413,6;0,007368035
160430,7;0,00736217
160446,3;0,00736217
160463,4;0,007375367
160479,4;0,007366569
160495,9;0,007365103
160512,5;0,007368035
160529,1;0,007409091
160545,8;0,007409091
160562,2;0,007435484
160578,9;0,007435484
160596,1;0,007451613
160611,9;0,007451613
160628,9;0,007387097
160645,5;0,007347507
160661,6;0,007332845
160681,6;0,007307918
160694,7;0,007310851
160711,3;0,007334311
160727,9;0,007321115
160744,5;0,007315249
160761;0,007356305
160777,6;0,007356305
160794,1;0,007318182
160811;0,007344575
160827,4;0,007322581
160843,8;0,007322581
160860,4;0,007328446
160877,1;0,007328446
160893,5;0,007325513
160910,4;0,007356305
160927,2;0,007332845
160943,2;0,007351906
160959,9;0,007325513
160976,4;0,007331378
160992,9;0,007368035
161009,5;0,007395895
161026,1;0,007388563
161043,4;0,007373901
161059,2;0,007403226
161075,9;0,007403226
161092,3;0,007414956
161109,8;0,007432552
161125,5;0,00744868
161142;0,007457478
161158,6;0,007485338
161175,2;0,007514663
161191,8;0,007536657
161208,3;0,007517595
161225,4;0,007560117
161241,4;0,007589443
161258,6;0,007560117
161275;0,007601173
161291,1;0,007604106
161307,7;0,007604106
161324,4;0,007561584
161340,8;0,007554252
161357,4;0,007549854
161374;0,007521994
161390,5;0,007494135
161407,1;0,007480938
161423,7;0,007502933
161440,2;0,007517595
161456,8;0,007577713
161473,4;0,007561584
161490,2;0,007568915
161506,5;0,00755132
161523,1;0,007545454
161539,9;0,00748827
161556,2;0,007507332
161572,8;0,007514663
161589,4;0,007472141
161605,9;0,007482405
161622,5;0,007457478
161639;0,007457478
161655,6;0,007387097
161672,2;0,007407625
161688,8;0,007394428
161705,5;0,007400293
161721,9;0,007434017
161738,7;0,007457478
161755,3;0,007457478
161772,5;0,007456012
161788,5;0,007385631
161805,3;0,007432552
161821,3;0,007438417
161838,6;0,007438417
161854,6;0,007439883
161871;0,00743695
161887,8;0,00741349
161904,1;0,007397361
161920,7;0,007372434
161937,3;0,007359237
161953,8;0,007356305
161970,4;0,007354839
161986,9;0,007335777
162003,5;0,007365103
162020,1;0,007368035
162036,6;0,007369502
162053,2;0,007400293
162069,8;0,007423754
162086,3;0,007438417
162102,9;0,007419355
162119,5;0,007466276
162136,2;0,007466276
162152,9;0,007453079
162169,2;0,007453079
162185,7;0,007445748
162202,4;0,007388563
162218,9;0,007429619
162235,4;0,007404692
162252;0,007432552
162268,6;0,00741349
162286,1;0,007398827
162301,7;0,007385631
162318,3;0,007409091
162334,8;0,007376833
162351,4;0,00735044
162368;0,007373901
162384,6;0,007441349
162401,1;0,007432552
162417,8;0,007428152
162438,7;0,007431085
162451;0,007429619
162467,4;0,007410557
162483,9;0,007409091
162500,5;0,007439883
162517,7;0,00747654
162533,6;0,007479472
162550,2;0,007473607
162566,8;0,007419355
162583,5;0,007456012
162600,5;0,00742522
162616,5;0,007445748
162633,5;0,007447214
162650,5;0,007464809
162666,2;0,007464809
162683;0,007473607
162699,5;0,007429619
162715,9;0,00743695
162733,1;0,007439883
162749;0,007439883
162765,7;0,007444282
162782,3;0,007444282
162798,7;0,007431085
162815,9;0,007431085
162832,4;0,007439883
162848,5;0,007444282
162865;0,007470674
162881,7;0,007442815
162898,1;0,007447214
162914,9;0,007469208
162931,2;0,007472141
162947,8;0,007451613
162964,6;0,007451613
162980,9;0,007444282
162997,5;0,007489736
163015;0,007461877
163030,8;0,007466276
163047,2;0,007485338
163063,8;0,007458944
163080,3;0,007458944
163096,9;0,007445748
163113,5;0,007460411
163130;0,007420821
163146,6;0,007467742
163163,5;0,007473607
163180,1;0,007428152
163196,3;0,007428152
163212,9;0,00740176
163229,4;0,007382698
163246,6;0,007351906
163262,7;0,007360704
163279,2;0,007385631
163296,3;0,007391496
163313,3;0,007416422
163328,8;0,007416422
163345,4;0,007414956
163362;0,007376833
163378,5;0,007376833
163395,1;0,007360704
163411,7;0,007360704
163428,2;0,007363637
163444,8;0,007337243
163461,4;0,0072478
163478;0,007234604
163494,5;0,00723607
163511,1;0,007246335
163527,7;0,0072478
163544,7;0,007255132
163561;0,007255132
163577,5;0,007272727
163594;0,007304986
163610,9;0,007304986
163627,6;0,007321115
163643,9;0,007321115
163660,2;0,007343109
163676,8;0,007313783
163693,5;0,007331378
163710,9;0,007334311
163726,4;0,00726393
163743,1;0,007265396
163759,6;0,007268329
163776,1;0,007328446
163793;0,007290323
163809,3;0,007290323
163825,8;0,00728739
163842,6;0,007319648
163859;0,007266862
163875,5;0,007260997
163892,1;0,007271261
163909,2;0,007269795
163925,2;0,007269795
163941,8;0,00728739
163958,9;0,007282991
163975;0,007259531
163991,5;0,007258065
164008,1;0,007258065
164024,6;0,007258065
164041,2;0,00723607
164058,4;0,00723607
164074,3;0,007227273
164091;0,007230205
164107,5;0,007209678
164124;0,007244868
164140,7;0,007192082
164157,7;0,007230205
164173,7;0,007233138
164190,3;0,00720088
164207,1;0,007250733
164223,4;0,007228739
164240,3;0,007211144
164256,9;0,007199414
164273,1;0,007203812
164289,8;0,007203812
164306,8;0,007205279
164322,9;0,007205279
164339,5;0,00723607
164356;0,007243402
164372,6;0,007183284
164389,1;0,007158358
164405,8;0,00721261
164422,7;0,007208211
164438,8;0,007208211
164456,3;0,007233138
164472;0,00722434
164488,5;0,007171554
164505,1;0,007162757
164521,9;0,007134898
164538,2;0,007134898
164555,3;0,0071261
164571,4;0,007112904
164587,9;0,0071261
164604,5;0,007164223
164621;0,007152493
164637,6;0,007152493
164654,6;0,00718915
164670,7;0,007203812
164687,4;0,007203812
164704,5;0,007225806
164720,5;0,00723607
164737;0,00723607
164753,6;0,0072522
164770,4;0,007260997
164787,3;0,00726393
164803,7;0,007246335
164819,8;0,007222874
164836,4;0,007240469
164853;0,007221408
164869,5;0,007225806
164886,1;0,007253666
164902,9;0,007262463
164919,2;0,0072522
164935,8;0,00728739
164952,4;0,007291789
164968,9;0,007340176
164985,5;0,007290323
165002,1;0,007299121
165018,6;0,00728739
165035,2;0,00728739
165051,8;0,007309384
165068,3;0,007309384
165084,9;0,007334311
165101,5;0,007302053
165118;0,007318182
165134,6;0,007294721
165151,2;0,007259531
165167,7;0,007281525
165184,3;0,007253666
165200,9;0,007282991
165217,4;0,007282991
165234,3;0,007299121
165250,8;0,007290323
165267,4;0,007318182
165283,7;0,007253666
165300,5;0,007266862
165316,8;0,007348974
165333,5;0,007348974
165350,8;0,007357772
165366,8;0,007357772
165383,4;0,007331378
165400,2;0,007325513
165416,2;0,00733871
165433;0,007337243
165449,9;0,007337243
165465,9;0,007360704
165482,5;0,007384164
165499,5;0,007428152
165515,6;0,007428152
165532,2;0,007388563
165548,9;0,007373901
165565,5;0,007379766
165581,9;0,007331378
165598,5;0,007331378
165615;0,007312317
165631,8;0,007309384
165648,2;0,007265396
165664,7;0,007249267
165681,3;0,007243402
165698,5;0,007215543
165714,5;0,007192082
165731;0,007192082
165747,6;0,007197947
165764,1;0,007197947
165780,9;0,007151026
165797,3;0,007174487
165814,1;0,007170088
165830,4;0,007153959
165847;0,007175953
165863,9;0,007175953
165880,1;0,007175953
165896,7;0,00717302
165913,2;0,007162757
165929,8;0,007162757
165946,4;0,007123167
165963;0,007133431
165979,5;0,007133431
165996,3;0,007127566
166012,8;0,007167155
166029,2;0,007158358
166045,8;0,007187684
166062,6;0,007155425
166078,9;0,007167155
166095,5;0,007174487
166112;0,007174487
166128,7;0,007134898
166145,4;0,007102639
166161,8;0,007098241
166178,4;0,007098241
166194,9;0,007038123
166211,4;0,006994135
166228,4;0,006992669
166244,6;0,006958944
166261,1;0,006958944
166277,7;0,007071848
166294,7;0,007055718
166310,8;0,007060118
166327,4;0,007043988
166344;0,007055718
166361,3;0,007048387
166377,1;0,007073314
166393,8;0,007036657
166410,2;0,007029326
166427;0,007020528
166443,4;0,007014663
166459,9;0,007032258
166476,7;0,007049853
166493,2;0,007064516
166509,6;0,007030792
166526,5;0,007045455
166543,5;0,007045455
166559,3;0,007001467
166576,3;0,007027859
166593,1;0,007020528
166609;0,007008798
166625,6;0,006998534
166642,2;0,006998534
166658,7;0,00697654
166675,3;0,006951613
166692,4;0,006972141
166708,6;0,006963343
166725;0,006970675
166741,6;0,006958944
166758,7;0,00697654
166774,7;0,006975073
166791,8;0,006975073
166808,5;0,006957478
166824,4;0,006948681
166841;0,007001467
166857,6;0,006998534
166874,7;0,00698827
166890,7;0,006983871
166907,2;0,007005865
166923,8;0,006979472
166940,4;0,006975073
166956,9;0,006939883
166973,5;0,006957478
166990,7;0,006964809
167006,7;0,006957478
167023,2;0,006975073
167039,8;0,006975073
167056,6;0,007005865
167073;0,006992669
167089,5;0,006967742
167106,8;0,006967742
167122,6;0,006972141
167139,3;0,006954546
167155,8;0,007035191
167173,2;0,007035191
167188,9;0,007033724
167205,6;0,007033724
167222;0,007017595
167239;0,006986803
167255,1;0,006986803
167272,3;0,006967742
167288,6;0,006967742
167305,3;0,006947214
167321,6;0,006865103
167338;0,006907625
167354,5;0,006875366
167371,2;0,006868035
167387,7;0,006898827
167404,2;0,006898827
167420,8;0,00689003
167437,5;0,00690176
167454;0,006922287
167470,6;0,006922287
167487,4;0,006914956
167503,8;0,006910557
167520,2;0,006898827
167536,9;0,006934018
167553,5;0,006967742
167569,9;0,00693695
167586,5;0,006950147
167603;0,006945748
167619,7;0,006945748
167636,7;0,006972141
167653;0,007005865
167669,3;0,007021994
167686,5;0,007041056
167702,4;0,007041056
167719;0,007049853
167735,8;0,007054252
167752,6;0,007065983
167768,7;0,007042522
167785,3;0,007032258
167801,8;0,007033724
167819,1;0,00706305
167835;0,00706305
167851,9;0,007043988
167868,6;0,007064516
167884,7;0,007049853
167901,2;0,007049853
167917,8;0,007042522
167934,4;0,007036657
167951,5;0,007043988
167967,5;0,00707478
167984,1;0,007070381
168000,7;0,007065983
168017,2;0,00705132
168034;0,007090909
168050,3;0,007083578
168067;0,007114369
168083,6;0,007108504
168100,8;0,007092375
168116,6;0,007090909
168133,2;0,007090909
168150;0,007131965
168166,3;0,007131965
168182,9;0,007148094
168199,4;0,007167155
168216;0,007139296
168232,6;0,007159824
168249,1;0,007151026
168265,7;0,007098241
168282,3;0,007102639
168299,3;0,007102639
168315,4;0,007107038
168332,5;0,007109971
168348,5;0,007158358
168365,8;0,007180352
168381,7;0,007180352
168398,8;0,007193549
168415,2;0,007215543
168431,6;0,007190616
168447,9;0,007190616
168464,9;0,007205279
168481,1;0,007183284
168497,9;0,007218475
168514,2;0,007243402
168531;0,007243402
168547,3;0,007246335
168563,9;0,007246335
168581;0,007249267
168597,1;0,007281525
168613,6;0,007249267
168630,2;0,007221408
168646,7;0,007222874
168663,3;0,007233138
168679,9;0,00722434
168697;0,007227273
168713;0,007227273
168729,8;0,007250733
168746,2;0,007272727
168762,7;0,007272727
168779,5;0,00726393
168795,9;0,007262463
168812,4;0,007316716
168829,1;0,007306452
168845,5;0,00723607
168862,4;0,007260997
168879,1;0,007260997
168895,4;0,007244868
168912,2;0,007265396
168928,4;0,007250733
168944,9;0,007230205
168961,5;0,007239003
168978,1;0,007249267
168994,7;0,007274194
169011,3;0,007244868
169027,8;0,007269795
169044,5;0,007231672
169060,9;0,007253666
169077,5;0,007249267
169094,6;0,00723607
169110,7;0,00723607
169127,4;0,00726393
169143,7;0,007312317
169160,3;0,007253666
169176,9;0,007253666
169193,4;0,007240469
169210;0,007240469
169226,8;0,007230205
169243,7;0,007240469
169259,7;0,007241935
169276,8;0,007315249
169293,5;0,007328446
169309,4;0,007304986
169326,6;0,007266862
169342,5;0,007280059
169359,6;0,007359237
169375,9;0,007365103
169392,3;0,007347507
169409,2;0,007347507
169425,4;0,007398827
169441,9;0,007392962
169458,5;0,007360704
169482,8;0,007369502
169491,6;0,007365103
169508,3;0,0073739
169525,3;0,007398827
169541,3;0,007359237
169558,2;0,007384164
169574,5;0,007394428
169591,2;0,007394428
169607,7;0,007414956
169624,2;0,007414956
169640,8;0,007428152
169657,8;0,007395895
169673,9;0,007392962
169691,2;0,007387097
169707;0,007417889
169723,6;0,007414956
169740,2;0,007472141
169756,7;0,00747654
169773,3;0,007492669
169790;0,00748827
169806,4;0,007453079
169823,1;0,00744868
169839,6;0,007475073
169856,3;0,007475073
169873;0,007419355
169889,6;0,00751173
169905,8;0,007532258
169922,6;0,007548387
169939;0,007567449
169955,8;0,007564516
169972,1;0,007541056
169988,6;0,00751173
170005,8;0,007514663
170021,8;0,007492669
170038,6;0,007483871
170054,9;0,007517595
170071,5;0,007502933
170088;0,007486803
170104,6;0,007505865
170121,2;0,007542522
170137,7;0,007539589
170154,7;0,007513197
170170,9;0,007539589
170187,4;0,007621701
170204;0,007621701
170221,1;0,007621701
170237,1;0,007612903
170254,5;0,007664223
170270,3;0,007634897
170286,8;0,007665689
170303,4;0,007683285
170320;0,007646628
170336,5;0,007653959
170356,7;0,007664223
170369,7;0,007664223
170386,3;0,007609971
170402,8;0,007602639
170419,4;0,007576246
170435,9;0,007576246
170452,8;0,007576246
170469,6;0,007604106
170485,7;0,007595308
170502,2;0,007567449
170519,5;0,007555719
170536,1;0,007557185
170551,9;0,007558651
170568,5;0,007535191
170585;0,00755132
170602,2;0,007577713
170618,2;0,007585044
170634,7;0,007593842
170651,3;0,007595308
170668;0,007596774
170684,4;0,007609971
170701;0,007609971
170717,6;0,007571848
170734,3;0,007548387
170750,7;0,007538123
170767,3;0,007545454
170783,8;0,00755132
170800,5;0,007479472
170817;0,007457478
170833,5;0,007480938
170850,2;0,007480938
170866,7;0,007519062
170883,3;0,007479472
170900;0,00744868
170917;0,00744868
170932,9;0,00748827
170949,5;0,007473607
170966,1;0,00747654
170982,6;0,007502933
170999,2;0,0075
171015,8;0,007491203
171032,7;0,00740176
171049,3;0,007403226
171065,6;0,00742522
171082;0,007395895
171098,6;0,007395895
171115,3;0,007420821
171131,8;0,007407625
171148,7;0,007331378
171165,4;0,007348974
171181,5;0,007348974
171198;0,007382698
171214,6;0,007368035
171231,3;0,00736217
171247,7;0,007309384
171264,3;0,00732698
171280,8;0,007300586
171297,4;0,007331378
171314,1;0,007343109
171330,5;0,007343109
171347,6;0,007343109
171363,7;0,007271261
171380,7;0,007253666
171396,8;0,007256598
171413,4;0,007234604
171429,9;0,007186217
171446,5;0,007187684
171463,1;0,007192082
171479,8;0,007177419
171496,2;0,007170088
171512,8;0,007155425
171529,3;0,007184751
171545,9;0,007148094
171562,5;0,007148094
171579;0,007183284
171595,8;0,007219941
171612,2;0,007230205
171628,9;0,007193549
171645,7;0,007193549
171661,9;0,007162757
171678,4;0,007180352
171695;0,007180352
171711,6;0,007159824
171728,1;0,00713783
171745,3;0,007145161
171761,9;0,007145161
171777,8;0,007180352
171794,6;0,007102639
171811;0,00708651
171827,6;0,007090909
171844,1;0,007082112
171860,7;0,007023461
171877,3;0,007014663
171893,8;0,006985337
171910,5;0,007042522
171926,9;0,007030792
171944;0,007030792
171960,1;0,007096774
171977,1;0,007090909
171993,4;0,007090909
172009,9;0,007090909
172026,9;0,007170088
172042,9;0,007134898
172059,5;0,007151026
172076;0,007151026
172092,8;0,007162757
172110,1;0,007165689
172125,7;0,007171554
172142,3;0,007120235
172158,9;0,0071261
172175,4;0,007045455
172192;0,007043988
172209,2;0,007041056
172225,1;0,007077713
172242,3;0,007077713
172258,3;0,007060118
172275;0,007035191
172291,4;0,006985337
172308;0,006980938
172324,6;0,007024927
172341,1;0,007019062
172357,7;0,007016129
172374,2;0,007024927
172390,8;0,007055718
172407,4;0,007061583
172424,9;0,007099707
172440,6;0,007101173
172457,1;0,007064516
172473,6;0,007092375
172490,7;0,007092375
172507,1;0,007096774
172523,6;0,007087977
172539,9;0,007087977
172556,5;0,007108504
172573;0,007077713
172589,6;0,007101173
172606,2;0,00707478
172622,9;0,00707478
172639,3;0,007032258
172655,9;0,007024927
172672,8;0,00705132
172689;0,007057185
172705,6;0,007071848
172722,2;0,007071848
172738,7;0,007027859
172755,3;0,007036657
172771,8;0,007049853
172788,5;0,00707478
172805;0,007101173
172821,5;0,007085044
172838,1;0,007096774
172854,8;0,007026393
172871,2;0,007024927
172887,8;0,007054252
172904,4;0,00706305
172920,9;0,00706305
172937,6;0,007090909
172954,6;0,007123167
172970,6;0,007120235
172987,6;0,007071848
173003,8;0,00708651
173020,3;0,007087977
173037,7;0,007087977
173053,5;0,007098241
173070;0,007153959
173086,6;0,00713783
173103,5;0,00717302
173119,8;0,007181818
173136,3;0,00721261
173153,3;0,007227273
173169,4;0,007225806
173186,4;0,007237537
173203,3;0,007255132
173219,6;0,007239003
173235,7;0,007239003
173252,4;0,00727566
173268,8;0,007243402
173285,4;0,007243402
173302,3;0,007332845
173318,9;0,007359237
173335,7;0,00742522
173351,9;0,007423754
173368,2;0,007442815
173384,8;0,00748827
173401,4;0,007510264
173418;0,007536657
173434,6;0,007536657
173451,1;0,007560117
173468,1;0,007542522
173484,2;0,007560117
173500,8;0,007560117
173518,1;0,007519062
173534;0,007516129
173550,5;0,007520528
173567;0,007546921
173583,7;0,007546921
173601;0,007489736
173616,8;0,007530792
173633,3;0,007519062
173650,2;0,007494135
173666,7;0,007482405
173683,1;0,007482405
173699,6;0,007505865
173716,5;0,00751173
173732,7;0,007460411
173749,3;0,007450147
173765,9;0,007450147
173782,4;0,007505865
173799,5;0,007508798
173816;0,007510264
173832,9;0,00751173
173848,9;0,00751173
173865,8;0,007519062
173882,2;0,007513197
173898,4;0,0075
173914,9;0,0075
173931,6;0,007423754
173948,2;0,00736217
173964,6;0,007376833
173981,2;0,00733871
173998;0,00733871
174014,5;0,007319648
174030,9;0,007318182
174047,5;0,007357772
174064,1;0,007324047
174080,9;0,007348974
174097,2;0,007359237
174113,7;0,007359237
174130,3;0,007341642
174147;0,007388563
174163,8;0,007388563
174180;0,007419355
174197,3;0,007394428
174213,7;0,007394428
174229,7;0,007406158
174246,3;0,007431085
174262,8;0,007382698
174279,4;0,007391496
174296,3;0,007391496
174312,8;0,00736217
174329,6;0,007385631
174345,7;0,007347507
174362,3;0,007325513
174378,8;0,007354839
174395,5;0,007334311
174412,3;0,007334311
174428,8;0,007329912
174445,1;0,007375367
174461,6;0,007351906
174478,9;0,007344575
174494,8;0,007370968
174511,3;0,007381232
174528,3;0,007368035
174545;0,007368035
174561,6;0,007357772
174577,7;0,007365103
174594,9;0,007337243
174610,7;0,007337243
174627,4;0,007347507
174644,5;0,007403226
174660,6;0,00742522
174677;0,007378299
174693,6;0,007378299
174710,1;0,007385631
174726,9;0,007404692
174743,3;0,007412023
174759,8;0,007391496
174776,4;0,007400293
174793;0,0073739
174809,8;0,007340176
174826,1;0,007372434
174842,7;0,007372434
174859,2;0,007363637
174875,8;0,0073739
174892,4;0,007387097
174909;0,007397361
174925,8;0,007397361
174942,2;0,007351906
174959;0,007304986
174975,2;0,007318182
174992,6;0,007312317
175008,7;0,007288856
175025,6;0,007296188
175041,5;0,007278592
175058,2;0,007255132
175074,6;0,007265396
175091,2;0,007272727
175107,8;0,007243402
175124,3;0,007243402
175140,9;0,007215543
175157,4;0,007181818
175174;0,007133431
175190,6;0,007156892
175207,4;0,007152493
175223,7;0,007186217
175240,3;0,007195015
175257,3;0,007214076
175273,7;0,007197947
175290;0,007115836
175307,1;0,007098241
175323,5;0,007017595
175339,7;0,007017595
175356,2;0,007017595
175372,8;0,007001467
175389,4;0,007001467
175406,8;0,006960411
175422,5;0,006950147
175439,8;0,006979472
175455,9;0,006934018
175472,2;0,006941349
175488,8;0,006975073
175505,3;0,006951613
175521,9;0,006950147
175538,5;0,006951613
175555,4;0,007045455
175571,6;0,007045455
175588,2;0,00705132
175604,8;0,00705132
175621,3;0,007046921
175638,4;0,007008798
175654,4;0,007048387
175671,2;0,007054252
175687,6;0,007043988
175704,1;0,007043988
175720,7;0,007041056
175737,3;0,00708651
175754,3;0,00708651
175770,4;0,00708651
175787;0,007043988
175804;0,00708651
175820,8;0,007080645
175836,7;0,007107038
175853,2;0,007104106
175870,4;0,007083578
175886,4;0,007057185
175903,5;0,00706305
175919,5;0,007102639
175936,6;0,007102639
175953,4;0,0071261
175969,2;0,007095308
175985,9;0,0071261
176002,7;0,007108504
176018,9;0,007111437
176036;0,0071261
176052;0,0071261
176069,2;0,007143695
176085,4;0,007159824
176101,7;0,007171554
176118,3;0,007190616
176134,9;0,007215543
176151,4;0,007206745
176168;0,007187684
176184,6;0,007174487
176201,1;0,007174487
176217,7;0,007181818
176234,3;0,007181818
176250,8;0,007181818
176267,4;0,007187684
176284,9;0,007244868
176300,8;0,007255132
176317,1;0,007266862
176333,7;0,007321115
176350,2;0,007306452
176366,8;0,007306452
176383,4;0,007262463
176399,9;0,007262463
176416,5;0,007290323
176433,1;0,007284458
176449,6;0,007272727
176466,4;0,007280059
176483;0,007280059
176499,3;0,007282991
176521,5;0,007271261
176532,5;0,007285924
176549,7;0,007271261
176565,6;0,007268329
176582,2;0,007351906
176598,7;0,007344575
176615,3;0,007344575
176631,9;0,007324047
176648,4;0,007334311
176665,1;0,007334311
176681,6;0,007296188
176698,1;0,007341642
176714,7;0,007335777
176731,3;0,007303519
176747,8;0,007290323
176764,4;0,00736217
176781;0,00736217
176797,7;0,007372434
176814,2;0,007385631
176831;0,007384164
176847,2;0,007372434
176863,8;0,007372434
176880,4;0,007382698
176896,9;0,007391496
176913,5;0,0073739
176930,1;0,007365103
176946,6;0,007397361
176963,5;0,007412023
176979,8;0,007458944
176996,9;0,00747654
177013,4;0,007485338
177029,5;0,007479472
177046;0,007479472
177062,6;0,007439883
177079,2;0,007457478
177096,4;0,007457478
177112,7;0,007521994
177129,8;0,007532258
177145,5;0,007539589
177162;0,007539589
177179,1;0,007557185
177195,1;0,007560117
177211,7;0,007555719
177228,3;0,007555719
177245,3;0,007533724
177261,4;0,007538123
177278;0,007542522
177294,5;0,007542522
177311,1;0,007510264
177327,7;0,007535191
177344,2;0,007532258
177361,3;0,007505865
177377,7;0,007505865
177393,9;0,007595308
177410,5;0,007620235
177427,1;0,007596774
177443,6;0,007630499
177460,2;0,007631965
177476,8;0,007615836
177493,3;0,007615836
177509,9;0,007623167
177527;0,007623167
177543;0,007623167
177559,8;0,007593842
177576,4;0,007599707
177592,8;0,007585044
177609,7;0,007612903
177625,9;0,007609971
177642,4;0,007643695
177659,2;0,007643695
177676,2;0,00759824
177692,2;0,007593842
177709;0,007601173
177725,6;0,007587977
177741,9;0,007579179
177758,4;0,007589443
177775,1;0,007565983
177791,9;0,007568915
177808,5;0,007513197
177824,7;0,007508798
177841,2;0,007502933
177857,8;0,007507332
177874,4;0,007495601
177890,9;0,007521994
177907,5;0,007521994
177924,3;0,007542522
177940,7;0,007568915
177957,6;0,007539589
177974;0,007510264
177990,3;0,007507332
178007,2;0,007479472
178024;0,007458944
178040;0,00742522
178057,2;0,00742522
178074;0,007346041
178090;0,007341642
178106,3;0,007388563
178123,2;0,007388563
178139,4;0,007370968
178156;0,007370968
178172,6;0,007394428
178189,4;0,007375367
178205,7;0,007365103
178222,3;0,007328446
178238,8;0,007316716
178255,4;0,00728739
178272;0,007277126
178288,6;0,007288856
178305,1;0,007288856
178321,7;0,007260997
178338,2;0,00721261
178354,8;0,007219941
178371,5;0,007174487
178387,9;0,007197947
178404,5;0,007177419
178421,5;0,007178886
178437,9;0,007152493
178454,8;0,007168622
178470,8;0,00718915
178487,3;0,007177419
178503,9;0,007159824
178520,6;0,00716129
178537,2;0,00716129
178553,6;0,007102639
178570,2;0,007117302
178586,7;0,007148094
178603,3;0,007148094
178619,9;0,007124634
178636,4;0,007146628
178653,8;0,007115836
178669,6;0,00713783
178686,7;0,00713783
178702,7;0,007118769
178719,3;0,007143695
178735,8;0,007146628
178752,5;0,007117302
178769,1;0,007093842
178785,7;0,007108504
178802,1;0,007108504
178818,7;0,007134898
178835,2;0,007109971
178851,8;0,007109971
178868,4;0,0071261
178885,5;0,007107038
178902;0,007093842
178918,2;0,007093842
178935,6;0,007092375
178951,2;0,007048387
178968,5;0,007082112
178984,3;0,007055718
179000,9;0,007092375
179017,5;0,007092375
179034,1;0,007021994
179051,2;0,00705132
179067,3;0,007041056
179084;0,007017595
179100,3;0,006998534
179117,1;0,006992669
179133,4;0,007036657
179155,2;0,007041056
179166,8;0,007041056
179183,1;0,007046921
179199,8;0,007070381
179217,1;0,007048387
179233,1;0,007035191
179249,4;0,007023461
179266,5;0,007071848
179282,5;0,007093842
179299,1;0,007093842
179316;0,007151026
179332,2;0,007120235
179349,2;0,007117302
179365,8;0,007101173
179381,9;0,007101173
179398,5;0,007048387
179415,1;0,007048387
179431,6;0,007054252
179448,3;0,007054252
179465,2;0,007108504
179481,3;0,007096774
179498;0,007093842
179514,5;0,007102639
179531;0,007143695
179547,6;0,00716129
179564,2;0,007168622
179580,7;0,007109971
179597,6;0,007092375
179613,9;0,007083578
179630,4;0,007071848
179647,1;0,007071848
179663,6;0,007070381
179680,1;0,00706305
179696,9;0,007068915
179713,3;0,007101173
179730,7;0,007101173
179746,4;0,007090909
179763;0,007120235
179779,5;0,007120235
179796,1;0,007101173
179813,3;0,007101173
179829,9;0,007120235
179846;0,007115836
179862,4;0,007105572
179878,9;0,007104106
179896;0,00708651
179912,1;0,007058651
179928,7;0,007089443
179945,6;0,007112904
179961,8;0,0071261
179978,3;0,007158358
179994,9;0,007158358
180011,5;0,007143695
180028;0,007151026
180044,8;0,007192082
180061,2;0,007186217
180077,9;0,00720088
180094,3;0,007184751
180110,9;0,007203812
180127,5;0,007208211
180144;0,007208211
180160,6;0,007192082
180177,1;0,007197947
180193,9;0,007197947
180210,3;0,00723607
180226,9;0,00723607
180243,7;0,007300586
180260;0,007310851
180276,5;0,007312317
180293,9;0,007290323
180309,7;0,007282991
180326,3;0,007337243
180342,8;0,007351906
180359,4;0,007368035
180376;0,00740176
180392,5;0,007395895
180409,1;0,007346041
180426;0,007346041
180442,2;0,007369502
180458,8;0,007351906
180475,4;0,007343109
180491,9;0,007348974
180508,7;0,007348974
180525;0,007366569
180541,6;0,007343109
180558,2;0,007344575
180575,4;0,007344575
180591,3;0,007410557
180607,9;0,007492669
180624,4;0,007514663
180641,1;0,007529326
180658,3;0,007529326
180674,1;0,007533724
180690,7;0,00751173
180707,6;0,007513197
180724;0,007513197
180740,4;0,007532258
180757;0,007543989
180773,5;0,007527859
180790,4;0,007510264
180806,8;0,007510264
180823,3;0,007508798
180839,8;0,007508798
180856,5;0,007519062
180873,5;0,007501466
180889,8;0,007501466
180906,2;0,007508798
180922,6;0,007508798
180939,2;0,00751173
180955,8;0,00752346
180972,3;0,0075
180988,9;0,0075
181005,5;0,00744868
181022;0,007495601
181038,6;0,007510264
181055,3;0,007510264
181071,7;0,007475073
181088,3;0,00748827
181104,9;0,007543989
181121,8;0,007504399
181138,4;0,007504399
181154,6;0,007486803
181171,1;0,007489736
181187,9;0,007450147
181204,3;0,007432552
181220,8;0,007432552
181237,4;0,007445748
181254;0,007482405
181270,5;0,007460411
181287,1;0,007434017
181304;0,007398827
181320,3;0,007398827
181336,8;0,007387097
181353,4;0,007387097
181369,9;0,007403226
181386,9;0,007359237
181403,1;0,007387097
181420;0,007390029
181436,2;0,007344575
181452,8;0,00733871
181469,9;0,007343109
181485,9;0,007366569
181502,5;0,007384164
181519,2;0,007384164
181535,6;0,007384164
181552,2;0,007302053
181569,2;0,007307918
181585,3;0,007324047
181601,9;0,007271261
181618,4;0,00726393
181635,3;0,007255132
181651,6;0,007239003
181668,4;0,007331378
181685,3;0,007351906
181701,7;0,007347507
181717,8;0,007306452
181734,4;0,007280059
181751;0,007285924
181767,5;0,007297654
181784,1;0,007304986
181802,9;0,007328446
181817,2;0,00736217
181834;0,007376833
181850,4;0,007460411
181866,9;0,007451613
181883,6;0,007461877
181900,5;0,007480938
181916,6;0,007432552
181933,2;0,007422287
181949,8;0,007422287
181966,4;0,007384164
181982,9;0,007394428
181999,5;0,007394428
182016;0,007423754
182032,9;0,007464809
182049,5;0,007390029
182066;0,007426686
182082,3;0,007404692
182098,9;0,007391496
182116;0,007368035
182132;0,00740176
182148,6;0,007400293
182165,3;0,007398827
182181,7;0,007442815
182198,3;0,007445748
182215,1;0,007428152
182231,5;0,007419355
182248;0,007366569
182264,5;0,007412023
182281,1;0,007439883
182298,6;0,007450147
182314,7;0,007420821
182330,8;0,007400293
182347,5;0,007406158
182364,2;0,007406158
182380,5;0,007379766
182397,6;0,007382698
182413,7;0,007391496
182430,2;0,00740176
182446,8;0,007400293
182463,3;0,007387097
182480,2;0,00740176
182496,5;0,007412023
182513,1;0,007419355
182530,5;0,007400293
182546,6;0,007407625
182562,9;0,007432552
182579,3;0,00732698
182595,9;0,007274194
182612,4;0,007274194
182629;0,00728739
182645,6;0,007312317
182662,2;0,007277126
182679,1;0,007322581
182695,3;0,007382698
182712;0,007363637
182728,4;0,007363637
182745,1;0,007347507
182761,5;0,007347507
182778,1;0,007376833
182794,7;0,007372434
182811,3;0,007365103
182827,8;0,007365103
182844,5;0,007357772
182861,6;0,007385631
182877,5;0,007432552
182894,1;0,007403226
182910,9;0,007403226
182927,6;0,007457478
182943,8;0,007450147
182960,8;0,007470675
182977,8;0,007470675
182993,5;0,007520528
183010;0,007514663
183026,8;0,00751173
183043,6;0,007520528
183059,8;0,007520528
183076,3;0,007526393
183092,9;0,007513197
183110;0,007532258
183126;0,007568915
183143;0,007565983
183159,1;0,007526393
183175,7;0,007546921
183192,3;0,007652493
183208,8;0,007633431
183225,7;0,007668622
183242,1;0,007659824
183258,5;0,007659824
183275,1;0,00767742
183291,7;0,00767742
183308,3;0,007674487
183324,8;0,007686217
183341,4;0,007715543
183358,7;0,007687683
183374,5;0,007695015
183391,1;0,007744868
183407,6;0,007734604
183424,5;0,007706745
183440,8;0,007731671
183457,3;0,007719941
183473,9;0,007690616
183490,5;0,007653959
183507;0,007708211
183523,6;0,007760997
183540,2;0,007760997
183556,8;0,007785924
183573,4;0,007766862
183590,3;0,007769795
183606,5;0,007762463
183623;0,007759531
183639,6;0,00779912
183656,1;0,007812317
183673,1;0,007771261
183689,5;0,007755132
183706,6;0,007800587
183722,4;0,007796188
183739;0,00777566
183756,1;0,007740469
183772,1;0,00776393
183788,7;0,007744868
183805,3;0,007744868
183821,8;0,007695015
183838,5;0,007730206
183855;0,007665689
183871,5;0,007646628
183889;0,007653959
183904,6;0,007648094
183921,2;0,007648094
183938,2;0,007652493
183954,4;0,007655425
183971,2;0,007612903
183987,5;0,007612903
184004;0,00764956
184020,6;0,007582112
184037,2;0,00759824
184053,8;0,007627566
184070,3;0,007627566
184086,9;0,00766129
184103,4;0,007708211
184120;0,007659824
184136,6;0,00766129
184153,5;0,007655425
184170;0,007642229
184186,8;0,007681818
184202,8;0,007709677
184219,8;0,007734604
184236;0,007747801
184252,5;0,007750733
184269,5;0,007697947
184285,8;0,007670088
184302,3;0,007670088
184318,8;0,007684751
184335,4;0,00767302
184351,9;0,007690616
184368,5;0,007722874
184386;0,007809384
184401,6;0,007824047
184418,3;0,007824047
184435,1;0,007818182
184451,3;0,007797654
184467,9;0,007802053
184485,1;0,0078739
184501;0,0078739
184517,6;0,007865103
184534,2;0,007860704
184551,6;0,007881232
184567,4;0,007881232
184584;0,007897361
184601;0,007891496
184618;0,007865103
184633,6;0,007920821
184650,5;0,007897361
184666,7;0,007894428
184683,3;0,007912024
184700;0,007919355
184716,5;0,007964809
184733;0,007979472
184749,7;0,008002932
184766,8;0,008001466
184783,5;0,008004399
184799,2;0,007992669
184815,9;0,007976539
184832,8;0,007976539
184849;0,007976539
184865,5;0,007983871
184882,1;0,007938417
184898,8;0,007947214
184915,2;0,007961877
184932,1;0,007958944
184948,3;0,007945748
184964,9;0,007923754
184981,5;0,007920821
184998,2;0,007876833
185014,6;0,00790176
185031,2;0,007860704
185048,3;0,007846042
185064,3;0,007851906
185081,4;0,007828446
185097,7;0,007828446
185114;0,007815249
185130,8;0,007821115
185147,1;0,007822581
185164;0,007840176
185180,3;0,007840176
185197,5;0,00783871
185213,4;0,00783871
185230;0,007749267
185246,7;0,007736071
185263,1;0,007736071
185279,8;0,007736071
185297;0,00764956
185312,8;0,00764956
185333,5;0,007618769
185345,9;0,007592375
185362,5;0,007592375
185379,1;0,007587977
185395,9;0,007577713
185412,2;0,007587977
185428,8;0,007571848
185445,3;0,007583578
185462,5;0,007583578
185478,7;0,007595308
185495;0,007602639
185511,7;0,007560117
185528,2;0,007560117
185544,8;0,007570381
185562;0,007579179
185578,5;0,007579179
185594,5;0,007543989
185611,5;0,007568915
185627,6;0,007557185
185645;0,007545454
185660,7;0,007545454
185677,5;0,007508798
185693,9;0,007570381
185710,8;0,007573314
185727;0,007604106
185743,8;0,007678886
185760,5;0,007678886
185776,7;0,007642229
185793,3;0,00766129
185810;0,00766129
185826,4;0,007664223
185843,4;0,007668622
185859,8;0,007703812
185876,3;0,007608505
185892,6;0,007623167
185909,7;0,007623167
185925,9;0,0076261
185942,3;0,00761437
185959,2;0,007683285
185975,8;0,00770088
185992;0,00770088
186008,8;0,007659824
186025,2;0,007696481
186041,7;0,007756598
186058,3;0,007756598
186075,2;0,007809384
186091,4;0,007793255
186108,5;0,007715543
186124,6;0,007760997
186141,3;0,007760997
186157,9;0,007758065
186174,4;0,0077522
186190,8;0,007737537
186207,7;0,007737537
186224;0,007633431
186240,5;0,007646628
186257,1;0,007662757
186273,7;0,007665689
186290,3;0,007674487
186307;0,007708211
186323,4;0,007708211
186339,9;0,007765396
186356,6;0,007730206
186373,1;0,007703812
186389,6;0,007703812
186406,4;0,007664223
186422,8;0,007690616
186439,3;0,00767742
186455,9;0,00767742
186718,6;0,007356305
186718,6;0,007397361
186738,6;0,007397361
186755,4;0,007397361
186771,6;0,007335777
186788,2;0,007353372
186804,8;0,007366569
186821,7;0,007419355
186837,9;0,007419355
186854,5;0,007404692
186871,2;0,007403226
186887,6;0,007439883
186904,1;0,007439883
186920,7;0,007423754
186937,3;0,007444282
186953,9;0,007438417
186970,8;0,007423754
186987,2;0,007434017
187003,6;0,007434017
187020,1;0,007456012
187036,7;0,007491203
187053,3;0,007482405
187070,3;0,00747654
187086,4;0,007482405
187103;0,007505865
187119,5;0,007492669
187136,3;0,007466276
187152,7;0,007524927
187169,2;0,00756305
187186,5;0,00756305
187202,6;0,00756305
187219;0,007558651
187235,5;0,007605572
187252,4;0,007577713
187268,6;0,007555719
187285,2;0,007552786
187302,2;0,00751173
187318,6;0,007495601
187335,6;0,007491203
187351,6;0,007492669
187368;0,007486803
187384,6;0,007501466
187401,2;0,00747654
187418,1;0,007469208
187434,3;0,007469208
187451,4;0,007510264
187467,4;0,00748827
187484;0,007469208
187500,6;0,007435484
187517,1;0,00743695
187533,7;0,007447214
187550,3;0,007423754
187566,8;0,007369502
187583,4;0,007388563
187600,2;0,007400293
187616,5;0,007400293
187633,1;0,007472141
187650,1;0,007504399
187666,2;0,007485338
187682,8;0,007485338
187699,3;0,007466276
187716,2;0,007450147
187732,5;0,007498534
187749,4;0,007454546
187765,6;0,007469208
187782,2;0,007513197
187799,5;0,007491203
187815,3;0,007441349
187832,2;0,00740176
187848,5;0,00740176
187865;0,007365103
187882,5;0,007353372
187898,4;0,007348974
187914,7;0,007369502
187931,8;0,007360704
187948,6;0,007329912
187964,4;0,007426686
187981;0,00741349
187997,9;0,00741349
188014,1;0,007491203
188030,7;0,007494135
188047,2;0,007472141
188063,8;0,007469208
188080,4;0,007385631
188097,1;0,00736217
188113,5;0,00736217
188130,1;0,007376833
188146,7;0,007368035
188163,2;0,00740176
188179,8;0,00740176
188196,3;0,007363637
188213,1;0,007368035
188229,5;0,007357772
188246,4;0,007321115
188262,6;0,007306452
188279,3;0,007334311
188295,8;0,007306452
188312,3;0,007288856
188329,2;0,007280059
188345,4;0,007282991
188362;0,007307918
188385,8;0,007331378
188395,1;0,007343109
188412,3;0,00732698
188428,3;0,00727566
188445,1;0,007312317
188461,4;0,007312317
188478,1;0,007337243
188494,5;0,007329912
188511,1;0,007337243
188527,7;0,007369502
188544,6;0,007369502
188561;0,007363637
188577,4;0,007390029
188594;0,007491203
188610,9;0,007486803
188627,1;0,007451613
188643,6;0,007414956
188660,2;0,007456012
188676,8;0,007456012
188693,5;0,007403226
188709,9;0,007368035
188726,5;0,007378299
188743,6;0,00741349
188759,6;0,007398827
188776,2;0,007417889
188792,8;0,007420821
188809,3;0,007404692
188826,2;0,007404692
188842,8;0,007426686
188859;0,007444282
188875,6;0,007388563
188892,2;0,007382698
188908,7;0,007378299
188925,4;0,007329912
188942;0,007353372
188958,4;0,007344575
188975;0,007346041
188991,6;0,007348974
189008,1;0,007324047
189024,7;0,007244868
189041,3;0,007271261
189057,8;0,007271261
189074,6;0,007290323
189091,5;0,007310851
189107,5;0,007285924
189124,1;0,007285924
189140,7;0,007309384
189157,5;0,007309384
189174;0,007271261
189190,4;0,007272727
189207;0,007278592
189223,5;0,007249267
189240;0,007253666
189257;0,007253666
189277;0,00727566
189289,9;0,007255132
189306,6;0,0072478
189323,1;0,007282991
189339,5;0,007288856
189356;0,007300586
189372,6;0,007299121
189389,1;0,007284458
189405,7;0,007297654
189422,5;0,007293255
189438,8;0,007293255
189455,4;0,007284458
189472,2;0,007282991
189489;0,007304986
