91951,88;0,007108504
91973,23;0,007121701
91990,05;0,007099707
92006,37;0,007107038
92022,94;0,007067449
92039,5;0,007070381
92056,07;0,007052786
92072,63;0,007052786
92089,23;0,007052786
92106,03;0,007052786
92128,63;0,007061584
92145,2;0,007055718
92161,77;0,007093842
92178,82;0,00706305
92194,9;0,007058651
92211,46;0,007058651
92228,64;0,00705132
92244,65;0,007036657
92261,31;0,007054253
92283,7;0,007049853
92300,27;0,007065983
92316,89;0,007067449
92333,41;0,007067449
92349,97;0,007095308
92366,53;0,007095308
92383,1;0,007107038
92400,13;0,007109971
92416,23;0,007071848
92445,89;0,00705132
92462,46;0,007045455
92479,02;0,007045455
92495,66;0,007054253
92512,27;0,007039589
92528,73;0,007024927
92545,47;0,007026393
92561,87;0,007026393
92578,43;0,007019062
92601,22;0,007039589
92617,79;0,007038123
92634,66;0,007038123
92650,91;0,007023461
92667,48;0,007019062
92684,52;0,007024927
92700,63;0,007049853
92717,19;0,007049853
92733,84;0,007045455
92754,08;0,007049853
92770,66;0,007039589
92787,22;0,007024927
92803,79;0,007060118
92820,35;0,007077713
92836,92;0,00707478
92853,5;0,007083578
92870,07;0,00708651
92886,62;0,007105572
92908,08;0,007092375
92924,72;0,007076247
92941,22;0,007073314
92958,02;0,007041056
92974,35;0,007041056
92990,91;0,007041056
93007,51;0,007023461
93024,15;0,007048387
93040,62;0,007045455
93063,36;0,007065983
93079,92;0,007068915
93096,66;0,007067449
93113,06;0,007054253
93129,63;0,007052786
93146,2;0,007068915
93165,02;0,007036657
93181,58;0,007029326
93198,37;0,007042522
93220,71;0,007023461
93237,48;0,007023461
93254,27;0,007039589
93270,41;0,007054253
93286,98;0,007071848
93303,96;0,007083578
93320,3;0,007083578
93336,68;0,007089443
93353,38;0,007095308
93374,73;0,007101173
93392,05;0,007111437
93407,86;0,007111437
93424,43;0,007115836
93441;0,007114369
93457,56;0,007048387
93474,13;0,007048387
93490,7;0,007048387
93507,27;0,007043988
93529,52;0,007024927
93546,09;0,007029326
93562,66;0,007017595
93579,22;0,007032258
93595,79;0,007032258
93612,35;0,007029326
93628,91;0,007020528
93645,48;0,007046921
93662,05;0,007054253
93684,3;0,007045455
93700,87;0,007048387
93717,94;0,007048387
93734;0,007060118
93750,56;0,007016129
93767,13;0,007017595
93783,7;0,007030792
93800,41;0,007027859
93816,95;0,00698827
93837,86;0,007005865
93854,58;0,006994135
93870,99;0,006978006
93890,09;0,006985337
93906,66;0,006995601
93923,24;0,007020528
93940,46;0,007005865
93956,36;0,007001467
93956,36;0,007013197
93976,37;0,007005865
93993,88;0,007016129
94009,5;0,007007332
94026,06;0,007024927
94042,63;0,007013197
94059,2;0,007010264
94075,9;0,00701173
94092,33;0,006998534
94108,89;0,007008798
94129,66;0,007008798
94146,23;0,007060118
94162,79;0,007048387
94179,36;0,007045455
94195,96;0,007030792
94212,49;0,006998534
94229,05;0,007004399
94245,62;0,00698827
94262,27;0,006982405
94283,88;0,00697654
94300,57;0,007001467
94317,02;0,007001467
94333,72;0,007033724
94350,5;0,007033724
94366,71;0,007026393
94383,44;0,007033724
94399,85;0,007033724
94416,41;0,00701173
94436,87;0,006986804
94453,69;0,006983871
94470,34;0,00697654
94487,34;0,006972141
94503,13;0,006975073
94520,05;0,006983871
94536,27;0,006997067
94552,84;0,006997067
94569,41;0,007002932
94591,16;0,007010264
94607,73;0,006995601
94625,75;0,007005865
94642,32;0,007002932
94658,89;0,007002932
94675,45;0,007007332
94692,02;0,007029326
94708,59;0,007030792
94725,41;0,007030792
94748,29;0,007067449
94764,86;0,007070381
94781,43;0,007073314
94798;0,007073314
94814,58;0,007068915
94831,13;0,007073314
94847,7;0,007079179
94864,4;0,007093842
94880,91;0,007117302
94903,12;0,007115836
94920,48;0,007120235
94936,26;0,007120235
94952,82;0,007130499
94969,98;0,007184751
94985,95;0,007208211
95002,52;0,007208211
95019,09;0,007225806
95035,65;0,0072478
95058,37;0,00726393
95074,94;0,0072522
95091,59;0,007233138
95108,12;0,007269795
95124,64;0,007288856
95141,2;0,007265396
95157,77;0,007255132
95174,99;0,007249267
95191,01;0,007244868
95213,02;0,007241935
95229,63;0,007246335
95246,63;0,007237537
95262,72;0,007221408
95279,28;0,007218475
95295,84;0,007211144
95312,45;0,007218475
95330,93;0,007250733
95345,55;0,007278592
95368,92;0,007269795
95385,49;0,007243402
95402,23;0,007231672
95418,98;0,007278592
95435,19;0,007244868
95451,79;0,00726393
95468,32;0,0072478
95485,34;0,0072478
95501,49;0,007274194
95522,8;0,007277126
95539,38;0,007256598
95555,95;0,007266862
95572,51;0,007281525
95589,3;0,007290323
95606;0,007281525
95622,27;0,007266862
95638,77;0,007277126
95655,37;0,007290323
95677,55;0,007272727
95694,16;0,007274194
95711,35;0,007282991
95727,24;0,007280059
95743,81;0,007315249
95760,38;0,007315249
95776,95;0,007296188
95793,51;0,007300586
95810,08;0,007282991
95832,45;0,007282991
95849,02;0,00727566
95865,59;0,00727566
95882,15;0,007280059
95898,8;0,007281525
95915,28;0,007278592
95931,85;0,007277126
95948,65;0,007282991
95964,99;0,007291789
95987,38;0,007271261
96003,95;0,007269795
96020,67;0,007244868
96037,08;0,007244868
96057,09;0,007249267
96070,77;0,007214076
96086,77;0,007199414
96103,8;0,007203812
96119,91;0,007202346
96142,33;0,007197947
96159,16;0,007190616
96175,48;0,007174487
96192,03;0,007180352
96208,76;0,007190616
96225,76;0,00714956
96242,05;0,007164223
96258,3;0,007164223
96274,87;0,007170088
96295,73;0,007170088
96312,36;0,007199414
96328,91;0,007184751
96345,43;0,00718915
96362,52;0,007197947
96378,58;0,007208211
96395,63;0,007241935
96411,7;0,00726393
96428,26;0,00726393
96449,44;0,00727566
96466,45;0,00727566
96482,58;0,007303519
96499,14;0,007303519
96515,77;0,007331378
96532,29;0,007341642
96548,91;0,007310851
96565,84;0,007315249
96581,97;0,00732698
96603,32;0,007310851
96619,88;0,007335777
96637,05;0,007337243
96653,02;0,007329912
96669,59;0,00735044
96686,15;0,007325513
96702,92;0,007343109
96719,28;0,00735044
96735,93;0,00735044
96758,56;0,007368035
96775,21;0,007368035
96793,11;0,007357772
96810,37;0,007368035
96826,25;0,007356305
96842,81;0,007395895
96859,38;0,007388563
96875,94;0,00743695
96892,55;0,007432552
96913,34;0,007403226
96930,16;0,007403226
96946,64;0,007407625
96963,05;0,007398827
96980,24;0,007363637
96996,18;0,007313783
97012,75;0,007293255
97029,31;0,007278592
97045,88;0,007278592
97067,74;0,007272727
97084,69;0,007321115
97100,88;0,007329912
97117,44;0,007329912
97134,05;0,007331378
97150,57;0,007318182
97167,14;0,007291789
97183,97;0,007329912
97200,27;0,007321115
97223,55;0,007310851
97240,11;0,007319648
97256,69;0,007310851
97273,24;0,007304986
97289,82;0,007324047
97306,39;0,007321115
97323,13;0,007307918
97339,52;0,007313783
97356,08;0,007325513
97379,29;0,007325513
97395,85;0,007357772
97412,42;0,007356305
97429,48;0,007356305
97445,55;0,007348974
97462,24;0,007375367
97478,68;0,007348974
97495,69;0,007341642
97514,63;0,007344575
97537,92;0,007368035
97554,5;0,007398827
97571,06;0,007376833
97587,63;0,007366569
97604,8;0,00735044
97620,76;0,007346041
97637,59;0,007343109
97653,89;0,007343109
97671,29;0,007375367
97687,43;0,007384164
97709,98;0,007372434
97726,55;0,007378299
97743,57;0,007378299
97759,94;0,007366569
97776,25;0,007356305
97792,89;0,007356305
97809,41;0,007354839
97826,25;0,007370968
97843,45;0,007390029
97864;0,007391496
97880,57;0,007392962
97897,23;0,007395895
97913,7;0,007403226
97930,27;0,007403226
97946,85;0,007404692
97963,91;0,007419355
97979,98;0,007439883
97996,54;0,007422287
98018,43;0,007438417
98035;0,007434017
98051,94;0,007434017
98068,13;0,007454546
98084,95;0,007454546
98101,48;0,007483871
98118,45;0,007478006
98160,34;0,007467742
98192,23;0,007475073
98208,86;0,007480938
98225,41;0,007483871
98241,95;0,007507332
98258,66;0,007517595
98275,07;0,007521994
98291,84;0,007521994
98308,63;0,007486803
98325,02;0,007482405
98346,7;0,007482405
98363,25;0,00747654
98379,81;0,007494135
98396,75;0,007494135
98412,95;0,007491203
98429,68;0,007463343
98446,1;0,007457478
98462,81;0,007495601
98479,29;0,007510264
98502,85;0,007501466
98519,98;0,0075
98535,98;0,0075
98552,64;0,007497068
98569,19;0,007524927
98585,68;0,00752346
98602,25;0,007517595
98619,66;0,007517595
98635,38;0,007510264
98659,32;0,007524927
98675,89;0,007541056
98692,45;0,007541056
98709,02;0,007549854
98725,59;0,007570381
98742,16;0,007524927
98758,74;0,007508798
98775,28;0,007508798
98792,19;0,007532258
98811,95;0,007546921
98828,52;0,007558651
98845,91;0,007558651
98863,27;0,007539589
98878,6;0,007533724
98894,78;0,00751173
98911,35;0,007508798
98928,48;0,00751173
98944,49;0,007495601
98966,27;0,007491203
98982,99;0,007529326
98999,4;0,007542522
99016,01;0,007546921
99032,53;0,007546921
99049,15;0,007565983
99065,66;0,007579179
99082,23;0,007580645
99098,94;0,007605572
99122,37;0,007577713
99139,02;0,00758651
99155,83;0,007579179
99172,07;0,007571848
99188,64;0,00761437
99205,2;0,007645161
99222,23;0,007671555
99238,34;0,00767742
99254,91;0,00767742
99277,8;0,007696481
99294,4;0,00770088
99311,19;0,007702346
99327,51;0,007702346
99344,07;0,007718475
99361,45;0,007714076
99377,2;0,007696481
99393,77;0,007696481
99410,34;0,007702346
99431,07;0,007684751
99447,64;0,007717009
99464,2;0,007714076
99480,79;0,007717009
99497,88;0,007714076
99514,04;0,007725806
99530,48;0,007697947
99547,38;0,007686217
99570,76;0,007684751
99600,41;0,007719941
99616,98;0,007719941
99633,88;0,007739003
99651,01;0,00770088
99666,67;0,007693549
99683,24;0,007693549
99699,8;0,007697947
99716,65;0,007717009
99732,95;0,007762463
99760,98;0,007760997
99777,86;0,007781525
99794,15;0,007755132
99810,7;0,007753666
99827,25;0,007743402
99843,82;0,007765396
99860,38;0,007793255
99877,09;0,007781525
99893,52;0,007790323
99914,62;0,00778739
99931,59;0,007796188
99947,77;0,007802053
99964,33;0,007812317
99981,1;0,007791789
99997,46;0,00779912
100014;0,007807918
100031,1;0,007807918
100047,2;0,007853373
100068,5;0,007920821
100085,7;0,007897361
100101,6;0,007897361
100118,4;0,00790176
100134,8;0,00790176
100151,3;0,007904693
100167,9;0,007900293
100185,1;0,00792522
100201,3;0,007910557
100221,8;0,007917888
100238,6;0,007929618
100255;0,007916423
100271,5;0,00791349
100288,3;0,00791349
100306,8;0,007923754
100323,4;0,007928153
100339,9;0,007917888
100356,5;0,007951613
100378,9;0,007964809
100395,5;0,007958944
100412,1;0,007958944
100429;0,007957478
100445,1;0,007960411
100462,1;0,007950147
100478,3;0,007958944
100494,9;0,007944281
100511,4;0,007909091
100532,6;0,007916423
100549,4;0,007926687
100565,9;0,007926687
100582,3;0,007958944
100598,9;0,007958944
100615,4;0,007973608
100632;0,007963344
100648,6;0,007950147
100665,4;0,007922287
100686,4;0,007947214
100703,4;0,007953079
100719,6;0,007948681
100736,1;0,007948681
100752,8;0,007964809
100769,3;0,007972141
100785,9;0,007961877
100802,4;0,007954545
100819;0,00792522
100839,9;0,007944281
100856,9;0,007926687
100873,8;0,007953079
100889,6;0,007967742
100906,2;0,007991202
100922,7;0,008001466
100939,5;0,007989736
100956,4;0,007989736
100972,4;0,007991202
100995,3;0,007985338
101012,1;0,007991202
101031,7;0,007931085
101048,5;0,007931085
101065;0,007904693
101081,9;0,007907624
101098;0,007907624
101114,5;0,007894428
101131,1;0,007923754
101152,3;0,007931085
101168,8;0,007900293
101185,5;0,00785044
101202;0,007828446
101218,6;0,007828446
101235,6;0,007816716
101251,7;0,00778739
101268,3;0,007815249
101284,8;0,007829912
101306;0,007824047
101322,6;0,007816716
101339,2;0,007782992
101355,7;0,007784457
101372,7;0,007782992
101388,9;0,007790323
101405,4;0,007766862
101422,1;0,007777126
101438,9;0,007790323
101461,1;0,00779912
101477,6;0,007771261
101494,2;0,007784457
101510,8;0,007755132
101527,3;0,007741936
101543,9;0,007758065
101561,4;0,007756598
101577;0,007736071
101593,9;0,007741936
101615;0,007750733
101631,6;0,007749267
101648,3;0,007749267
101664,7;0,007794722
101681,3;0,007794722
101697,9;0,007774194
101714,4;0,007753666
101732,8;0,007759531
101747,6;0,007790323
101768,8;0,007784457
101785,4;0,007759531
101802;0,007780059
101818,5;0,007777126
101835,1;0,007777126
101851,8;0,007774194
101868,8;0,007734604
101885,4;0,007746335
101901,8;0,007741936
101923,5;0,007733138
101940,1;0,00776393
101956,6;0,007768329
101973,4;0,007803519
101990,3;0,00779912
102006,7;0,007813783
102023,1;0,007790323
102039,5;0,007804986
102056,7;0,007747801
102078,7;0,007747801
102095,3;0,007743402
102111,8;0,00771261
102128,8;0,00771261
102145;0,007714076
102161,5;0,007692082
102178,8;0,007706745
102194,7;0,007714076
102211,2;0,007714076
102232;0,007718475
102248,6;0,007705279
102265,2;0,007705279
102281,9;0,007715543
102298,3;0,007693549
102314,9;0,007690616
102331,4;0,007690616
102348,6;0,007693549
102364,6;0,007686217
102386,9;0,007683285
102403,5;0,007692082
102420,7;0,007678886
102436,6;0,007670088
102453,1;0,00767302
102471,2;0,007693549
102487,8;0,007693549
102504,7;0,007733138
102521,7;0,007746335
102543,9;0,007739003
102560,4;0,00772434
102577,4;0,007708211
102593,6;0,00770088
102610,2;0,00770088
102627,4;0,00767302
102643,9;0,007692082
102660;0,007702346
102676,4;0,007702346
102697,5;0,00768915
102714,1;0,007693549
102730,9;0,007687683
102747,7;0,007693549
102764,1;0,007687683
102780,3;0,00768915
102796,9;0,00767742
102813,5;0,007687683
102830,6;0,007692082
102851,9;0,007681818
102868,5;0,007670088
102885,4;0,007670088
102901,7;0,007670088
102918,9;0,007675953
102935,3;0,007667155
102951,3;0,007711144
102967,9;0,007711144
102984,4;0,007696481
103006;0,007681818
103022,6;0,007681818
103039,1;0,007681818
103055,7;0,007708211
103072,3;0,00771261
103088,8;0,00772434
103105,8;0,007743402
103122;0,007728739
103138,6;0,007731671
103161,1;0,007743402
103178,1;0,007741936
103196,9;0,0077522
103213,8;0,0077522
103230,5;0,007734604
103247,1;0,007746335
103263,6;0,007759531
103279,9;0,007749267
103296,3;0,007706745
103318,2;0,007768329
103335,4;0,007797654
103351,8;0,007797654
103367,9;0,007800587
103384,7;0,007815249
103401,1;0,007840176
103417,6;0,007857772
103434,2;0,007857772
103451;0,007853373
103472;0,007846042
103488,6;0,007868036
103505,1;0,007832845
103521,9;0,007832845
103538,3;0,007854839
103555,2;0,007882698
103571,4;0,007909091
103588;0,007919355
103604,5;0,007907624
103627,1;0,007907624
103644;0,007910557
103661;0,007878299
103676,8;0,007887097
103693,4;0,007888563
103710;0,007888563
103726,5;0,007922287
103743,1;0,007922287
103760,1;0,007941349
103782,1;0,007922287
103798,7;0,007903226
103815,3;0,007907624
103832,7;0,007897361
103849,2;0,007900293
103865,3;0,007904693
103881,6;0,007894428
103898,1;0,007909091
103916,7;0,007892962
103939,9;0,00790176
103956,5;0,007863636
103973;0,007863636
103990,1;0,00785044
104006,2;0,007857772
104022,8;0,007870967
104039,3;0,007844575
104055,9;0,007844575
104072,4;0,007863636
104089;0,007843109
104112,6;0,007897361
104129,5;0,007897361
104145,8;0,007919355
104162,3;0,007907624
104179;0,007914956
104195,5;0,007939883
104212,5;0,007900293
104229,3;0,007895894
104245,2;0,007916423
104267,3;0,007916423
104284,1;0,007900293
104300,5;0,007903226
104317,1;0,007903226
104333,9;0,007912024
104350,4;0,007887097
104366,7;0,007860704
104383,3;0,007857772
104399,9;0,007847507
104421,5;0,007847507
104438,1;0,007843109
104454,6;0,007853373
104471,6;0,007816716
104487,8;0,007856305
104504,4;0,007854839
104520,9;0,007857772
104537,5;0,007856305
104554;0,007891496
104576;0,007891496
104592,6;0,007856305
104609,2;0,00788563
104625,7;0,007851906
104643,8;0,007863636
104660,4;0,007851906
104676,9;0,00786217
104694,1;0,007856305
104710,1;0,007848973
104732,7;0,007860704
104749,8;0,007866569
104765,8;0,007835777
104782,4;0,007835777
104798,9;0,007806452
104815,9;0,007810851
104832,1;0,007810851
104848,6;0,007844575
104865,2;0,007793255
104888,9;0,007800587
104906;0,007778592
104922;0,007760997
104938,6;0,007760997
104955,2;0,007758065
104971,8;0,00776393
104988,3;0,007797654
105004,9;0,007807918
105021,8;0,007810851
105045,2;0,007802053
105062,4;0,007790323
105078,3;0,007769795
105094,9;0,007756598
105111,6;0,007756598
105128,3;0,007741936
105144,6;0,007746335
105161,1;0,007758065
105177,8;0,007746335
105200,1;0,007734604
105216,9;0,007734604
105233,2;0,007733138
105249,8;0,007730206
105266,4;0,007721408
105282,9;0,007725806
105299,5;0,007733138
105316,6;0,00770088
105332,8;0,00770088
105355,4;0,007675953
105374,7;0,007705279
105391,3;0,007709677
105407,8;0,007709677
105424,4;0,007690616
105441;0,007690616
105457,5;0,007671555
105474,1;0,007662757
105491,3;0,00766129
105516,5;0,007703812
105533;0,007693549
105549,6;0,007651026
105566,5;0,007651026
105582,7;0,007642229
105599,3;0,007636364
105615,9;0,007636364
105632,4;0,007634897
105649;0,007623167
105670,3;0,007636364
105686,8;0,007636364
105703,4;0,007642229
105720;0,007627566
105736,6;0,007621701
105753,1;0,007601173
105769,7;0,007601173
105786,4;0,007599707
105802,8;0,007604106
105825,2;0,007590909
105841,8;0,007582112
105858,9;0,007605572
105874,9;0,007611437
105891,5;0,007611437
105908;0,007601173
105924,6;0,007564516
105941,2;0,007576246
105957,9;0,007593842
105980,3;0,00758651
105996,8;0,007601173
106013,4;0,007615836
106030;0,007601173
106046,5;0,007601173
106063,1;0,007639296
106080,2;0,007639296
106096,2;0,007624634
106112,8;0,007621701
106144;0,007618769
106160,5;0,007624634
106177,1;0,007624634
106193,7;0,0076261
106210,5;0,007624634
106227,6;0,007651026
106243,4;0,007651026
106260,1;0,007646628
106276,5;0,007618769
106298,3;0,007624634
106314,9;0,007587977
106331,5;0,007604106
106348;0,00763783
106364,8;0,007634897
106381,7;0,007645161
106397,7;0,007648094
106414,3;0,007656892
106431,7;0,007651026
106453,4;0,007651026
106470;0,007659824
106486,8;0,007643695
106503,5;0,007646628
106519,7;0,007646628
106536,3;0,007659824
106552,8;0,007630499
106569,5;0,007630499
106586;0,007646628
106606,4;0,007634897
106623,2;0,00767742
106640,1;0,007727273
106656,7;0,007718475
106672,9;0,007714076
106689,4;0,007714076
106705,9;0,007680352
106722,8;0,007670088
106739;0,007658358
106760,9;0,007670088
106777,5;0,007680352
106794,1;0,007731671
106810,7;0,007760997
106828,5;0,007765396
106845;0,007765396
106861,6;0,007815249
106878,7;0,007828446
106894,7;0,007821115
106916,6;0,007821115
106933,3;0,007821115
106949,7;0,007821115
106966,8;0,007766862
106982,9;0,007756598
106999,4;0,007760997
107016;0,007753666
107032,6;0,007768329
107049,6;0,007771261
107072,9;0,007781525
107089,8;0,007774194
107106,1;0,007772727
107122,8;0,007765396
107139,2;0,007768329
107155,8;0,007804986
107172,6;0,007797654
107188,9;0,007813783
107205,5;0,007810851
107227,9;0,007837243
107244,7;0,007829912
107261,1;0,007818182
107278,2;0,007831379
107294,2;0,007822581
107311,5;0,007815249
107327,6;0,007829912
107343,9;0,007824047
107360,6;0,007822581
107381,6;0,007822581
107398,6;0,007809384
107414,7;0,00779912
107431,3;0,007768329
107447,9;0,007791789
107464,5;0,007758065
107481;0,007747801
107497,8;0,007749267
107514,4;0,007731672
107536;0,007721408
107555,8;0,007731672
107572,4;0,007717009
107589;0,007727273
107605,5;0,007727273
107622,9;0,007702346
107638,6;0,007731672
107655,2;0,007733138
107671,7;0,00772434
107693;0,007722874
107710,1;0,007703812
107726,2;0,007722874
107742,7;0,007728739
107759,3;0,007728739
107775,9;0,007739003
107792,4;0,007759531
107809;0,007749267
107825,7;0,007760997
107847,7;0,007771261
107864,5;0,007782992
107880,8;0,007785924
107897,4;0,007782992
107914;0,007797654
107930,9;0,007804986
107947,1;0,007771261
107963,7;0,007772727
107980,2;0,00777566
108000,6;0,007772727
108017,2;0,007772727
108033,7;0,007768329
108050,5;0,007804986
108066,9;0,007812317
108083,4;0,007810851
108100;0,007806452
108116,5;0,007837243
108133,6;0,007837243
108155,4;0,007837243
108172,5;0,007812317
108188,5;0,007803519
108205,3;0,007825513
108221,6;0,007810851
108238,6;0,007791789
108254,8;0,00778739
108271,5;0,007791789
108291,1;0,007791789
108316,2;0,007807918
108332,8;0,007778592
108349,3;0,007762463
108365,9;0,007762463
108382,5;0,00776393
108399;0,007762463
108415,7;0,007747801
108432,2;0,007739003
108448,7;0,007739003
108465,3;0,007744868
108487,2;0,007724341
108503,8;0,007703812
108520,4;0,007728739
108536,9;0,007715543
108554;0,007715543
108570,1;0,007715543
108587;0,007725806
108603,2;0,007714076
108619,9;0,007680352
108642,3;0,007680352
108658,8;0,007678886
108675,4;0,007653959
108692;0,007686217
108708,5;0,007721408
108725,2;0,007753666
108741,7;0,007747801
108758,2;0,007734604
108774,8;0,007722874
108797,3;0,007687683
108813,9;0,007651026
108830,6;0,007639296
108848,4;0,007623167
109181,8;0,007519062
109198,5;0,007502933
109215,3;0,007491203
109231,5;0,007450147
109248,2;0,007460411
109264,6;0,007460411
109281,3;0,007508798
109297,7;0,007492669
109314,3;0,007501466
109330,9;0,007516129
109348;0,007521994
109364;0,007546921
109380,6;0,007573314
109397,1;0,007576246
109413,7;0,007618769
109430,2;0,007601173
109447,1;0,007611437
109463,4;0,007633431
109479,9;0,007629032
109496,5;0,007618769
109513,1;0,007618769
109529,6;0,007643695
109546,2;0,007630499
109562,8;0,007630499
109579,7;0,00761437
109596,1;0,007618769
109612,5;0,007618769
109629;0,007633431
109645,6;0,007651026
109662,3;0,007671555
109678,8;0,007662757
109695,4;0,007659824
109711,9;0,007643695
109728,4;0,007648094
109745,6;0,007629032
109761,9;0,007623167
109778,5;0,007646628
109794,7;0,007646628
109816;0,007665689
109827,8;0,007727273
109844,6;0,007719941
109861;0,007721408
109877,6;0,007730206
109894,1;0,007717009
109910,7;0,007717009
109927,3;0,007728739
109943,8;0,007734604
109961;0,007721408
109976,9;0,00771261
109993,5;0,00771261
110010,1;0,007690616
110027,1;0,007708211
110043,3;0,00771261
110059,8;0,00771261
110076,3;0,007719941
110092,9;0,007760997
110109,5;0,007797654
110126,2;0,007803519
110142,6;0,007803519
110159,2;0,007794722
110175,7;0,007794722
110192,3;0,007819648
110208,9;0,007826979
110225,4;0,007826979
110242,7;0,007834311
110258,6;0,007826979
110275,1;0,007837243
110291,9;0,007863636
110308,8;0,007882698
110324,8;0,007891496
110341,4;0,007857772
110358,1;0,007846042
110374,5;0,007846042
110391,1;0,007888563
110407,7;0,007876833
110424,3;0,007892962
110441,4;0,007844575
110457,5;0,007831379
110473,9;0,007831379
110490,5;0,007831379
110507,1;0,007840176
110523,8;0,007840176
110540,2;0,007825513
110556,8;0,007825513
110573,8;0,007824047
110589,9;0,007831379
110606,5;0,007835777
110623;0,007841642
110639,9;0,007869502
110656,2;0,007853373
110673;0,007875367
110689,9;0,007863636
110705,9;0,007884164
110722,4;0,007884164
110739;0,007906158
110756;0,007906158
110772,1;0,007888563
110788,8;0,007869502
110805,3;0,007872434
110821,8;0,007857772
110838,7;0,007841642
110855;0,007818182
110871,8;0,007806452
110888,2;0,007806452
110904,7;0,007800587
110921,3;0,007777126
110937,8;0,007777126
110954,4;0,007777126
110970,9;0,007788857
110988,1;0,007736071
111004,1;0,007744868
111021,1;0,007706745
111037,2;0,007734604
111053,8;0,007734604
111070,3;0,007733138
111086,9;0,007721408
111103,8;0,00772434
111120;0,007730206
111137,1;0,007722874
111153,2;0,007717009
111169,8;0,007721408
111186,6;0,00771261
111202,9;0,00771261
111219,6;0,007728739
111236;0,007719941
111252,7;0,007736071
111269,9;0,007721408
111286,1;0,007702346
111302,3;0,007733138
111319,5;0,007731671
111336,1;0,007743402
111352;0,007719941
111368,6;0,007706745
111385,1;0,007678886
111401,7;0,007681818
111418,3;0,007671555
111435,1;0,007671555
111451,4;0,007671555
111468,5;0,007683285
111484,9;0,007725806
111501,1;0,007725806
111517,6;0,007756598
111534,6;0,007756598
111550,8;0,007750733
111567,4;0,007810851
111583,9;0,007796188
111600,5;0,007772727
111617,5;0,007766862
111633,6;0,00777566
111650,5;0,007759531
111667,6;0,007759531
111683,3;0,007769795
111700,8;0,007769795
111716,4;0,007744868
111733,1;0,007766862
111749,6;0,007790323
111766,3;0,00778739
111782,7;0,007756598
111799,3;0,007756598
111815,9;0,007756598
111832,4;0,007727273
111849;0,007715543
111865,6;0,007722874
111882,1;0,007731671
111899,3;0,007728739
111915,3;0,007728739
111931,8;0,007719941
111948,5;0,007706745
111965;0,007708211
111981,6;0,007708211
111998,1;0,007717009
112014,6;0,007743402
112031,2;0,0077522
112047,8;0,007750733
112064,7;0,007750733
112080,9;0,007699414
112097,5;0,007680352
112114,3;0,007655425
112130,7;0,007658358
112147,6;0,007658358
112163,8;0,007693549
112180,3;0,007681818
112197,5;0,007664223
112213,4;0,007633431
112230;0,007629032
112246,6;0,007593842
112263,2;0,007579179
112279,7;0,007568915
112297,1;0,007577713
112313,2;0,007571848
112329,4;0,007565983
112346,7;0,007623167
112362,5;0,007602639
112379,2;0,007595308
112395,7;0,007601173
112412,3;0,007595308
112429,7;0,007602639
112445,7;0,00761437
112466,7;0,007624634
112478,5;0,007623167
112495,1;0,007602639
112511,9;0,007564516
112528,2;0,00755132
112544,8;0,00755132
112561,4;0,007542522
112578;0,007555719
112594,7;0,007530792
112611;0,007520528
112627,8;0,007520528
112644,2;0,007538123
112660,7;0,007543989
112677,4;0,007548387
112694,4;0,007532258
112710,5;0,007545455
112727,7;0,007564516
112743,6;0,007542522
112760,1;0,007541056
112776,7;0,007541056
112793,3;0,007539589
112809,8;0,007545455
112826,8;0,007524927
112843;0,007564516
112859,6;0,00759824
112876,1;0,007607038
112892,7;0,007601173
112909,4;0,007629032
112925,8;0,007629032
112943,1;0,007636364
112958,9;0,007624634
112975,8;0,007646628
112992,2;0,007636364
113009,3;0,007651026
113025,3;0,00767302
113042,2;0,007659824
113058,5;0,007642229
113075,5;0,007642229
113091,9;0,007624634
113108,2;0,007662757
113124,6;0,007683285
113141,2;0,007714076
113158,4;0,007714076
113174,3;0,007778592
113190,9;0,00778739
113207,4;0,007781525
113224;0,007782992
113240,6;0,007784457
113257,2;0,007806452
113273,9;0,007769795
113290,8;0,007777126
113307,5;0,00776393
113323,4;0,007781525
113340,2;0,007785924
113356,7;0,007785924
113378,1;0,007819648
113389,7;0,007884164
113406,9;0,00788563
113422,8;0,00788563
113439,4;0,007888563
113456,9;0,007888563
113472,5;0,007863636
113489,5;0,007785924
113505,7;0,007788857
113522,2;0,007788857
113538,8;0,007760997
113555,4;0,00768915
113572,1;0,00768915
113588,6;0,007708211
113605;0,007708211
113621,7;0,007681818
113638,7;0,007680352
113654,8;0,007681818
113671,4;0,007674487
113687,9;0,007683285
113704,4;0,007670088
113721,8;0,007674487
113737,6;0,007668622
113754,1;0,00764956
113770,7;0,00766129
113787,3;0,007709677
113804,3;0,007690616
113820,5;0,007708211
113837;0,007708211
113853,6;0,007719941
113870,2;0,007734604
113886,9;0,007740469
113903,3;0,007788857
113919,8;0,007794722
113936,4;0,00776393
113953;0,00777566
113969,5;0,007760997
113986,1;0,007760997
114002,7;0,007746335
114019,2;0,007743402
114035,8;0,007743402
114052,4;0,007762463
114069;0,007762463
114085,5;0,007762463
114102;0,00778739
114118,8;0,007821115
114135,2;0,007857772
114152,2;0,007863636
114168,3;0,007856305
114185,1;0,00790176
114201,5;0,007872434
114218;0,007870967
114234,6;0,007881232
114251,3;0,007904693
114272,8;0,007932551
114284,4;0,007935484
114301,3;0,007950147
114317,4;0,007957478
114334;0,008
114350,7;0,007994135
114367,1;0,007994135
114383,8;0,007973608
114400,2;0,007960411
114416,8;0,007958944
114433,4;0,007958944
114450;0,007957478
114466,7;0,007975074
114483,5;0,007982405
114499,6;0,007995602
114516,2;0,007995602
114533;0,008010264
114549,4;0,00802346
114565,9;0,008032259
114582,6;0,008041056
114599,1;0,008041056
114615,8;0,008058651
114632,2;0,008080645
114648,7;0,008079179
114666,2;0,008079179
114681,9;0,008101173
114698,4;0,008101173
114715,4;0,008085044
114732;0,008087977
114748,1;0,008087977
114765;0,008071847
114781,3;0,008109971
114798,2;0,008109971
114814,7;0,008104105
114831;0,008118768
114847,5;0,008112904
114864,1;0,008139296
114881;0,008156892
114897,9;0,008153959
114913,8;0,008130498
114930,4;0,008149561
114947,3;0,008134898
114963,5;0,008123167
114980,3;0,008085044
114996,6;0,008085044
115013,2;0,008071847
115029,8;0,008046921
115046,4;0,008024927
115062,9;0,008019062
115079,5;0,008020528
115096,4;0,008019062
115112,6;0,008008798
115129,2;0,007992669
115146;0,007992669
115162,3;0,007982405
115178,9;0,007958944
115195,4;0,007941349
115212;0,007954545
115228,8;0,007970675
115245,2;0,007961877
115261,8;0,007944281
115278,5;0,007944281
115294,8;0,007947214
115311,9;0,007939883
115328;0,007912024
115344,6;0,007914956
115361,7;0,007916423
115378,1;0,007920821
115394,3;0,007865103
115411,6;0,007758065
115427,4;0,007768329
115444,2;0,007765396
115460,5;0,007793255
115477,1;0,00779912
115493,8;0,007809384
115510,2;0,007831379
115526,8;0,007831379
115543,6;0,007888563
115559,9;0,007894428
115576,7;0,007891496
115593,2;0,007868036
115609,6;0,007857772
115626,3;0,007865103
115642,7;0,007881232
115659,6;0,007860704
115676;0,007857772
115693;0,007881232
115709;0,007878299
115726;0,007868036
115742,1;0,007879766
115758,7;0,007879766
115775,7;0,007859237
115792,1;0,007859237
115808,6;0,007844575
115825;0,007818182
115841,5;0,007848973
115858,9;0,007822581
115874,7;0,007802053
115891,2;0,007794722
115907,8;0,007797654
115924,4;0,007809384
115940,9;0,007829912
115957,8;0,007829912
115974,1;0,007824047
115990,6;0,007835777
116007,2;0,007835777
116023,8;0,007844575
116040,5;0,007848973
116056,9;0,007851906
116073,5;0,007831379
116090;0,007809384
116106,7;0,007790323
116123,7;0,00777566
116139,8;0,007774194
116156,7;0,007784457
116172,9;0,007771261
116190,1;0,007753666
116206;0,007760997
116222,6;0,007780059
116239,9;0,007780059
116255,7;0,007743402
116272,8;0,007731671
116289;0,007749267
116305,4;0,007744868
116322,3;0,007711144
116338,5;0,007681818
116355,4;0,007662757
116371,7;0,007658358
116388,2;0,007674487
116404,9;0,007681818
116421,4;0,007680352
116438;0,007680352
116454,5;0,007680352
116471,1;0,007667155
116487,7;0,007665689
116504,4;0,007686217
116521;0,007686217
116537,4;0,007705279
116553,9;0,007681818
116571;0,007670088
116587,1;0,007670088
116603,6;0,007684751
116620,2;0,007684751
116636,8;0,007681818
116653,3;0,007645161
116669,9;0,00763783
116686,5;0,007634897
116703;0,007624634
116719,6;0,007624634
116736,1;0,007608505
116752,7;0,00761437
116770;0,007599707
116786,5;0,007617302
116802,8;0,007601173
116819;0,007633431
116835,5;0,007651026
116852,1;0,007609971
116868,7;0,007618769
116885,3;0,007621701
116902,3;0,007618769
116918,4;0,007618769
116935;0,007618769
116951,5;0,007587977
116968,1;0,007645161
116984,6;0,007683285
117001,2;0,007678886
117017,8;0,007731671
117034,4;0,007750733
117051;0,007791789
117067,7;0,007791789
117084,2;0,007809384
117100,6;0,007803519
117117,2;0,007803519
117134;0,007822581
117150,3;0,007818182
117166,9;0,007815249
117183,4;0,007832845
117200;0,007832845
117216,6;0,007853373
117234;0,007843109
117249,9;0,007844575
117266,3;0,007857772
117283,2;0,007856305
117299,9;0,007868036
117316,1;0,007876833
117332,5;0,00791349
117349,1;0,00790176
117366,7;0,007922287
117382,6;0,007950147
117399,4;0,007950147
117416;0,00793695
117431,9;0,007931085
117448,5;0,007970675
117465,1;0,007967742
117481,7;0,007960411
117498,3;0,007957478
117515,1;0,00793695
117531,6;0,007942815
117548,5;0,007942815
117564,5;0,007929618
117581,2;0,007932551
117597,6;0,007960411
117614,2;0,007975074
117630,7;0,007966275
117647,3;0,007969208
117663,9;0,007994135
117680,5;0,007994135
117697;0,007970675
117713,6;0,007967742
117730,3;0,007967742
117747,1;0,007980939
117764,4;0,007953079
117780,5;0,007966275
117796,4;0,007994135
117813;0,007963344
117829,9;0,00792522
117846,7;0,007932551
117862,7;0,007931085
117879,7;0,007931085
117895,8;0,007928153
117912,7;0,007928153
117929,4;0,007928153
117946,1;0,007944281
117962,1;0,007945748
117978,6;0,007944281
117995,6;0,007954545
118011,8;0,007970675
118028,3;0,007956012
118044,9;0,007935484
118062,2;0,007939883
118078;0,007945748
118094,8;0,007928153
118111,2;0,007923754
118127,8;0,007931085
118144,3;0,007919355
118160,9;0,007919355
118177,4;0,007922287
118194,2;0,007923754
118210,7;0,007938417
118227,3;0,007941349
118244,1;0,007929618
118260,4;0,007922287
118276,9;0,007944281
118293,4;0,007935484
118310;0,007961877
118326,5;0,007970675
118343,2;0,007982405
118359,7;0,007982405
118376,2;0,007997068
118393,2;0,008029326
118409,4;0,00802346
118425,9;0,008016129
118442,6;0,008016129
118459,1;0,007986804
118475,7;0,007980939
118492,2;0,007957478
118509;0,007957478
118525,3;0,007948681
118541,9;0,007948681
118559,1;0,00793695
118575;0,007938417
118591,6;0,007963344
118608,6;0,007966275
118624,8;0,007972141
118641,4;0,007942815
118657,9;0,007956012
118674,4;0,007941349
118691,1;0,007935484
118707,7;0,007960411
118724,1;0,007988269
118740,7;0,007998534
118757,3;0,007998534
118773,9;0,007960411
118796,5;0,007960411
118807;0,007966275
118823,5;0,007944281
118840,3;0,00792522
118857,4;0,007944281
118873,4;0,00793695
118889,8;0,007917888
118907,3;0,007960411
118922,9;0,007948681
118939,5;0,007966275
118956,1;0,007969208
118972,6;0,007928153
118989,2;0,007928153
119005,9;0,007906158
119022,3;0,007922287
119039,7;0,00790176
119056,3;0,007882698
119072,1;0,007895894
119088,6;0,007898827
119105,2;0,007904693
119121,9;0,007904693
119138,4;0,007881232
119154,9;0,007872434
119171,5;0,007922287
119188;0,007909091
119204,6;0,007907624
119221,9;0,00792522
119238,2;0,007912024
119254,7;0,007907624
119270,9;0,007881232
119287,4;0,007878299
119304,1;0,007878299
119320,9;0,007878299
119337,6;0,007897361
119353,7;0,007879766
119370,7;0,007853373
119386,8;0,007843109
119403,4;0,0078739
119419,9;0,007922287
119436,5;0,007932551
119453,6;0,007912024
119469,6;0,007917888
119486,2;0,007931085
119502,8;0,007957478
119519,8;0,007985338
119536,1;0,007985338
119552,5;0,007983871
119569,7;0,007989736
119585,6;0,007989736
119603;0,007983871
119618,7;0,007997068
119635,3;0,008004399
119651,9;0,008004399
119668,8;0,008004399
119685,2;0,007989736
119701,9;0,007979472
119718,1;0,007976539
119735;0,007989736
119751,9;0,007982405
119767,8;0,007989736
119784,4;0,00798827
119801;0,007983871
119817,5;0,007983871
119834,9;0,008013196
119850,7;0,008013196
119867,3;0,008045455
119883,8;0,008048387
119900,5;0,008042522
119917,4;0,008042522
119934;0,008043989
119950,7;0,008049853
119966,8;0,008038123
119983,2;0,008043989
120000,2;0,008038123
120017,1;0,008033725
120032,9;0,008033725
120050,3;0,008060117
120066,8;0,008045455
120082,8;0,008048387
120099,5;0,00805132
120115,9;0,00805132
120132,4;0,008087977
120149,2;0,008093841
120165,8;0,008099707
120182,8;0,00811437
120198,7;0,008123167
120215,7;0,008123167
120232;0,008118768
120248,3;0,008117302
120264,8;0,008155425
120281,4;0,008131965
120298,1;0,008112904
120314,5;0,008080645
120331,7;0,008054253
120347,7;0,008045455
120364,5;0,008065983
120380,9;0,008070381
120397,4;0,008070381
120413,9;0,008064516
120430,5;0,008104105
120447,8;0,008108504
120464;0,008124634
120480,2;0,008124634
120496,8;0,008139296
120513,3;0,008129032
120530;0,008168622
120546,5;0,008192082
120563,6;0,008205279
120579,8;0,008205279
120596,2;0,008206745
120612,8;0,00820088
120629,3;0,00820088
120649,8;0,008208212
120662,5;0,008217009
120679;0,008222874
120696;0,008222874
120712,5;0,008205279
120728,7;0,008195015
120745,3;0,008192082
120761,9;0,008221407
120778,4;0,008221407
120795,3;0,008211144
120811,7;0,008215543
120828,6;0,008234604
120845,3;0,00821261
120861,2;0,008215543
120878;0,008202346
120894,4;0,008165689
120911,1;0,008165689
120927,9;0,008173021
120944,7;0,008196482
120960,6;0,008196482
120977,8;0,008181819
120993,9;0,008178886
121010,3;0,008149561
121026,9;0,008127566
121043,5;0,008117302
121060,1;0,00811437
121077;0,008107038
121093,3;0,008098241
121109,8;0,008098241
121126,3;0,008099707
121142,9;0,008093841
121159,4;0,008104105
121176,1;0,008060117
121192,6;0,008033725
121209,1;0,00802346
121225,7;0,007992669
121242,4;0,007994135
121258,9;0,008020528
121276;0,008032259
121292;0,008029326
121308,5;0,008043989
121325,1;0,008054253
121341,7;0,008068915
121358,2;0,008067449
121374,8;0,008096774
121391,8;0,008096774
121407,9;0,008065983
121424,8;0,008065983
121441,1;0,008121701
121457,6;0,008104105
121474,2;0,008096774
121490,8;0,008083578
121507,3;0,008057185
121524;0,008057185
121540,5;0,008052786
121557;0,008052786
121573,6;0,008064516
121591,1;0,008064516
121612;0,008060117
121623,3;0,008038123
121639,9;0,008008798
121656,4;0,008019062
121673;0,008029326
121689,6;0,008048387
121706,1;0,008061584
121722,8;0,008080645
121739,5;0,008076247
121755,9;0,008065983
121772,4;0,008065983
121789;0,008058651
121806;0,008068915
121822,1;0,008076247
121839;0,008065983
121855,3;0,008067449
121871,8;0,008067449
121888,4;0,008092375
121905;0,008101173
121921,5;0,008099707
121938,4;0,008070381
121954,7;0,008085044
121971,2;0,008092375
121987,8;0,008109971
122004,4;0,008111437
122021,6;0,00813783
122037,5;0,008143695
122054;0,008143695
122071,2;0,008140762
122087,4;0,008146628
122103,8;0,008140762
122120,5;0,008123167
122136,9;0,008146628
122153,7;0,008152492
122170;0,008153959
122186,6;0,008153959
122203,5;0,008161291
122220,2;0,008197947
122236,5;0,008205279
122252,8;0,008168622
122269,4;0,008155425
122286;0,008183285
122302,5;0,008186217
122319,5;0,008202346
122335,7;0,008230206
122352,3;0,008230206
122368,8;0,008219942
122385,6;0,008219942
122401,9;0,008199413
122418,5;0,008193549
122435,1;0,008171555
122452,3;0,008136364
122468,6;0,008124634
122484,8;0,0081261
122502,2;0,008118768
122517,9;0,008118768
122534,5;0,008109971
122551,6;0,00809091
122567,6;0,00807478
122584,2;0,008071847
122600,8;0,008071847
122617,3;0,008068915
122633,9;0,008055719
122650,4;0,008043989
122667,3;0,008041056
122683,6;0,008067449
122700,1;0,008077713
122716,7;0,008083578
122733,7;0,008115835
122749,8;0,008115835
122766,4;0,008130498
122783,8;0,008096774
122800,4;0,008098241
122816,1;0,008121701
122832,7;0,008121701
122849,3;0,008155425
122866,2;0,008153959
122882,4;0,008187683
122898,9;0,008186217
122915,9;0,008193549
122932,9;0,008186217
122948,7;0,008192082
122965,8;0,008187683
122981,8;0,008221407
122998,5;0,008228739
123014,9;0,008228739
123031,6;0,008256598
123048;0,008256598
123064,6;0,008268328
123081,3;0,008277127
123098,2;0,008300587
123114,3;0,008300587
123130,9;0,008300587
123147,5;0,008337243
123164,1;0,008310851
123180,6;0,008307918
123197,1;0,008340176
123214,4;0,008365103
123230,8;0,008387097
123246,9;0,0083739
123263,4;0,008397361
123280;0,008397361
123296,5;0,008391496
123313,1;0,008376833
123329,7;0,008356305
123347;0,008370968
123363,2;0,008357772
123379,4;0,008370968
123396,6;0,00839003
123412,5;0,008398827
123429,4;0,008370968
123446;0,008348973
123462,2;0,008353372
123478,8;0,008354839
123495,7;0,008322581
123512,3;0,008332845
123528,5;0,008303519
123545,3;0,00828739
123561,6;0,00828739
123578,4;0,008288857
123595,4;0,008288857
123611,3;0,008299121
123628;0,008337243
123644,8;0,008337243
123661;0,00835044
123677,6;0,00835044
123694,1;0,00835044
123710,7;0,008354839
123727,3;0,008325513
123743,8;0,008353372
123760,4;0,008359238
123777;0,008347508
123793,5;0,008315249
123810,4;0,008322581
123827,1;0,008316715
123843,9;0,008316715
123859,8;0,008321115
123876,4;0,008326979
123893,1;0,008326979
123909,5;0,00836217
123926,1;0,008353372
123942,9;0,008369502
123959,2;0,008348973
123975,8;0,0083739
123992,4;0,008375367
124008,9;0,008365103
124025,5;0,008347508
124042,2;0,008337243
124058,6;0,008340176
124075,4;0,008332845
124091,7;0,008340176
124108,5;0,008359238
124124,9;0,008359238
124141,5;0,008384164
124158;0,008366569
124174,6;0,008356305
124191,9;0,008356305
124208;0,008337243
124224,3;0,008315249
124240,9;0,008328446
124257,4;0,008335778
124274;0,008335778
124290,6;0,008337243
124307,2;0,008338709
124323,7;0,008321115
124340,7;0,00828739
124356,8;0,008266862
124373,4;0,008262464
124390;0,008262464
124406,8;0,008268328
124423,1;0,008290322
124446,5;0,008272727
124456,4;0,008271261
124473,7;0,008303519
124489,8;0,008328446
124505,9;0,008324047
124523;0,008331378
124539,1;0,0083739
124556;0,008397361
124572,2;0,008359238
124588,8;0,008338709
124605,3;0,008357772
124622,2;0,008370968
124638,7;0,008404693
124655,4;0,008398827
124671,6;0,008392962
124688,1;0,008392962
124704,7;0,008429619
124721,3;0,008441349
124737,8;0,008419355
124754,5;0,008431085
124771;0,008431085
124787,5;0,008475074
124804,1;0,008475074
124820,7;0,008456012
124837,2;0,008450147
124853,8;0,008442815
124870,4;0,008403226
124887,1;0,008417889
124904;0,008426687
124920,3;0,008417889
124937,5;0,008407624
124953,2;0,008426687
124969,9;0,008426687
124986,3;0,008428153
125002,9;0,008387097
125019,5;0,008384164
125036,3;0,008387097
125052,6;0,008404693
125069,2;0,008416423
125085,8;0,008416423
125102,3;0,008394429
125119;0,008391496
125135,4;0,008397361
125152;0,008397361
125168,6;0,008409091
125185,1;0,008451613
125201,7;0,008428153
125218,3;0,008432551
125234,9;0,008412024
125251,6;0,008416423
125268;0,008381232
125285,1;0,008391496
125301,4;0,008387097
125317,7;0,008388563
125334,6;0,008400293
125350,8;0,008391496
125367,5;0,008395894
125384,1;0,008338709
125400,6;0,008334311
125417,1;0,008335778
125434,1;0,008328446
125450,2;0,008329912
125466,8;0,008348973
125483,6;0,008335778
125499,9;0,008356305
125516,5;0,008379766
125533,2;0,008378299
125549,6;0,008378299
125566,3;0,0083739
125582,8;0,008351906
125599,3;0,008351906
125616;0,008351906
125632,4;0,00835044
125649;0,008325513
125666,3;0,008306452
125682,1;0,008306452
125698,9;0,008315249
125715,3;0,008331378
125732,3;0,008306452
125748,5;0,008331378
125765,9;0,008331378
125781,5;0,008351906
125798,1;0,008344575
125814,7;0,008341642
125831,6;0,008344575
125847,8;0,008325513
125864,7;0,008332845
125880,9;0,008294721
125897,5;0,00826393
125914,5;0,00826393
125930,6;0,008247801
125947,2;0,008211144
125963,8;0,00822434
125980,9;0,008193549
125996,9;0,008206745
126013,5;0,008206745
126030;0,008225807
126046,6;0,008247801
126063,5;0,008253666
126079,8;0,008253666
126096,4;0,008250733
126112,9;0,008228739
126129,4;0,008230206
126146,7;0,008206745
126162,7;0,008206745
126179,2;0,00821261
126195,7;0,008190616
126212,3;0,008199413
126228,8;0,008221407
126245,4;0,008221407
126262;0,00821261
126278,5;0,008203813
126295,5;0,008265396
126311,7;0,008266862
126328,3;0,008266862
126344,9;0,008280058
126361,5;0,008297654
126377,9;0,008324047
126394,5;0,008340176
126411,1;0,008340176
126427,6;0,008318182
126444,4;0,008328446
126460,8;0,008341642
126477,4;0,008303519
126493,9;0,008284458
126510,5;0,008288857
126527;0,008290322
126544;0,008303519
126560,9;0,008303519
126576,7;0,008288857
126593,3;0,008313783
126609,9;0,008322581
126626,5;0,008316715
126643;0,008307918
126659,6;0,008300587
126676,1;0,008304985
126692,7;0,00823607
126709,3;0,008222874
126725,8;0,008219942
126742,6;0,008253666
126759;0,008243402
126775,6;0,008233138
126792,1;0,008221407
126808,7;0,008246334
126825,3;0,008218476
126842,4;0,008218476
126858,7;0,008221407
126875,5;0,008221407
126891,5;0,008225807
126908,1;0,008237537
126924,6;0,008296188
126941,3;0,008271261
126957,8;0,008282991
126974,7;0,008281525
126990,9;0,008274194
127007,5;0,008268328
127024,5;0,008244868
127040,6;0,008258064
127057,2;0,008233138
127074;0,008233138
127091,1;0,008228739
127106,9;0,008249267
127123,6;0,008237537
127140;0,008218476
127156,6;0,008237537
127173,2;0,008231672
127189,7;0,008231672
127206,3;0,00823607
127222,9;0,00826393
127239,4;0,008304985
127256,1;0,008318182
127272,6;0,008315249
127289,1;0,008324047
127305,7;0,008334311
127322,8;0,008316715
127338,8;0,008303519
127355,4;0,008285924
127371,9;0,008310851
127388,5;0,008354839
127405,1;0,008348973
127421,7;0,008348973
127438,2;0,008378299
127455;0,008366569
127471,5;0,008366569
127487,9;0,008375367
127504,8;0,008375367
127521;0,008379766
127537,7;0,008391496
127554,2;0,008376833
127570,8;0,008442815
127587,7;0,008434018
127603,9;0,008434018
127620,5;0,008442815
127637;0,008466275
127653,6;0,008444281
127670,2;0,00843695
127686,8;0,008435484
127703,3;0,008419355
127719,9;0,008409091
127736,5;0,008409091
127753,7;0,008388563
127769,5;0,008378299
127786,7;0,008382699
127802,9;0,008398827
127819,2;0,008404693
127835,8;0,008412024
127852,5;0,008409091
127869;0,008423754
127885,5;0,008429619
127902,1;0,008434018
127918,6;0,008416423
127935,2;0,008407624
127951,8;0,008403226
127968,3;0,008400293
127984,9;0,008406159
128001,5;0,008406159
128018,3;0,008375367
128034,6;0,008375367
128051,7;0,008348973
128067,8;0,008315249
128084,6;0,008307918
128101;0,008307918
128117,6;0,008285924
128134,9;0,008300587
128150,6;0,008309384
128167,6;0,008309384
128184;0,008335778
128200,4;0,008347508
128216,8;0,008351906
128233,4;0,008351906
128250;0,00836217
128266,5;0,00841349
128283,1;0,008431085
128300;0,008400293
128316,3;0,008406159
128332,8;0,008429619
128350;0,008409091
128366,4;0,008414956
128382,5;0,008403226
128399,1;0,008357772
128415,9;0,008381232
128432,2;0,008398827
128448,8;0,008407624
128465,3;0,008407624
128481,9;0,008410557
128498,5;0,008423754
128515,2;0,008423754
128531,6;0,008435484
128548,4;0,008376833
128564,7;0,008397361
128581,4;0,008414956
128598,1;0,008423754
128614,4;0,008403226
128631;0,008388563
128647,6;0,008395894
128664,2;0,00841349
128680,8;0,008420821
128697,3;0,008428153
128713,9;0,008428153
128730,5;0,008419355
128747;0,008406159
128764,5;0,0083739
128780,1;0,0083739
128796,7;0,008368035
128813,5;0,008398827
128830,4;0,008397361
128846,4;0,0083739
128862,9;0,008344575
128879,6;0,008332845
128896,1;0,008331378
128912,6;0,008281525
128929,2;0,008293255
128945,8;0,008274194
128962,3;0,008260997
128978,9;0,00827566
128995,5;0,008268328
129012,1;0,008291789
129034,2;0,008282991
129045,4;0,008271261
129061,8;0,008266862
129078,6;0,008255132
129094,9;0,008255132
129111,5;0,008195015
129128,2;0,008202346
129144,8;0,008181819
129161,1;0,008177419
129178,6;0,008143695
129194,3;0,008183285
129211,3;0,008148094
129228;0,0081261
129244,2;0,008120235
129260,6;0,008092375
129277,3;0,008076247
129294,2;0,008068915
129310,5;0,008085044
129326,8;0,008111437
129343,6;0,008124634
129359,9;0,008093841
129376,7;0,008115835
129394;0,008105572
129409,7;0,008118768
129426,2;0,008118768
129442,8;0,008118768
129459,4;0,008131965
129476;0,008107038
129492,5;0,008045455
129509;0,008005865
129525,7;0,008005865
129542,2;0,008005865
129558,9;0,008002933
129575,9;0,007998534
129592;0,008007332
129608,4;0,008007332
129625,7;0,008013196
129641,6;0,008007332
129658,6;0,008002933
129674,7;0,008002933
129691,3;0,008013196
129707,9;0,00803519
129724,4;0,008048387
129741,3;0,008057185
129758,1;0,008055719
129774,1;0,008058651
129790,7;0,008046921
129807,3;0,008070381
129823,9;0,00806305
129840,4;0,008055719
129856,9;0,008061584
129873,5;0,008061584
129890,1;0,008029326
129906,9;0,008052786
129923,5;0,00806305
129940,2;0,008083578
129956,4;0,008085044
129973,1;0,008105572
129989,5;0,008109971
130006;0,008098241
130022,6;0,008099707
130039,2;0,008130498
130055,8;0,008142229
130072,3;0,008136364
130089;0,008136364
130105,5;0,008173021
130122;0,008177419
130138,7;0,008164223
130155,1;0,008164223
130171,7;0,008142229
130188,5;0,008121701
130204,9;0,008161291
130221,4;0,008158358
130238;0,008156892
130254,6;0,008143695
130271,7;0,008096774
130288,4;0,008082111
130304,2;0,008071847
130320,8;0,008071847
130337,4;0,008087977
130353,9;0,008082111
130370,9;0,008048387
130387,1;0,008067449
130403,8;0,008082111
130420,2;0,008083578
130436,8;0,008043989
130453,4;0,008014663
130470;0,008020528
130486,9;0,008033725
130503,5;0,008043989
130519,6;0,008027859
130536,3;0,008058651
130553,2;0,008057185
130569,3;0,008041056
130586;0,008014663
130602,4;0,008020528
130619;0,008
130635,6;0,008
130652,1;0,007988269
130669,2;0,007954545
130685,3;0,007958944
130701,9;0,007958944
130718,5;0,007963344
130735;0,007969208
130751,5;0,007944281
130768,1;0,007976539
130784,7;0,007958944
130801,4;0,007947214
130818,1;0,007938417
130834,5;0,007939883
130851;0,007941349
130868,3;0,007947214
130884,1;0,007947214
130900,7;0,007942815
130917,8;0,007963344
130934;0,007970675
130951;0,007975074
130966,9;0,007966275
130983,5;0,00798827
131000,7;0,007985338
131016,8;0,007960411
131033,2;0,007966275
131050,1;0,007967742
131066,3;0,007970675
131082,9;0,007973607
131099,7;0,007998534
131117;0,007998534
131132,6;0,008
131149,1;0,007972141
131165,8;0,007989736
131182,3;0,007970675
131199,6;0,007958944
131216;0,007989736
131232;0,008
131248,8;0,00801173
131265,9;0,008001466
131281,7;0,008008798
131298,3;0,00801173
131315;0,00801173
131331,4;0,008052786
131348;0,008052786
131364,5;0,008048387
131381,1;0,008041056
131397,6;0,008001466
131414,2;0,008005865
131431;0,008001466
131447,3;0,007998534
131463,9;0,00807478
131480,5;0,008045455
131497;0,008064516
131513,6;0,008054253
131530,3;0,008065983
131546,8;0,008065983
131563,3;0,008046921
131579,9;0,008052786
131596,8;0,008052786
131613,6;0,008071847
131629,6;0,008052786
131646,2;0,00806305
131662,7;0,008093841
131679,6;0,008073314
131696;0,008095308
131712,6;0,008089443
131729;0,008112904
131745,5;0,008115835
131762,7;0,008112904
131778,7;0,008131965
131795,3;0,008131965
131811,8;0,008152492
131828,6;0,008124634
131844,9;0,008118768
131861,5;0,008099707
131878,1;0,008099707
131895,5;0,008095308
131911,2;0,008076247
131927,8;0,008093841
131944,3;0,00808651
131960,9;0,008073314
131977,5;0,008073314
131994;0,008076247
132010,6;0,008076247
132027,2;0,008104105
132043,8;0,008082111
132060,3;0,008077713
132077;0,008061584
132093,7;0,008027859
132110;0,008046921
132126,6;0,008043989
132143,1;0,008043989
132159,7;0,008024927
132176,3;0,008027859
132192,8;0,008010264
132209,5;0,007963344
132226,3;0,007963344
132242,5;0,007972141
132259,8;0,008
132275,7;0,007995602
132292,9;0,007983871
132308,8;0,007997068
132325,4;0,007970675
132342;0,007964809
132358,5;0,008007332
132375,2;0,008007332
132391,6;0,008008798
132408,2;0,00801173
132424,8;0,007995602
132442,2;0,008033725
132458,5;0,008026393
132474,5;0,008019062
132491,1;0,00798827
132507,6;0,007970675
132524,2;0,007970675
132540,8;0,007973607
132557,6;0,007953079
132573,9;0,007956012
132590,6;0,007992669
132607;0,007985338
132623,8;0,007985338
132640,2;0,007995602
132657;0,008029326
132673,3;0,008029326
132689,8;0,00803519
132706,4;0,008058651
132723;0,008064516
132739,5;0,008076247
132756,7;0,008076247
132772,9;0,008101173
132789,3;0,008098241
132806,1;0,008107038
132822,4;0,00808651
132838,9;0,00809091
132855,5;0,00807478
132872,1;0,00808651
132888,6;0,008109971
132905,2;0,008095308
132921,9;0,008089443
132938,4;0,008099707
132954,9;0,008099707
132971,5;0,008089443
132988;0,008089443
133004,6;0,00813783
133021,2;0,008133431
133037,8;0,008133431
133054,3;0,008143695
133071;0,008140762
133087,9;0,008146628
133104,4;0,008146628
133120,6;0,00810264
133137,2;0,008139296
133153,7;0,008149561
133170,9;0,008129032
133186,8;0,0081261
133203,4;0,00810264
133220;0,008085044
133237;0,00810264
133253,1;0,008055719
133269,7;0,008061584
133286,2;0,008070381
133302,8;0,008080645
133319,4;0,008064516
133336;0,008055719
133352,5;0,008020528
133369,2;0,008027859
133385,7;0,008046921
133402,5;0,008058651
133418,8;0,008058651
133435,4;0,008077713
133452,2;0,008041056
133468,5;0,008043989
133485,2;0,008083578
133501,8;0,008098241
133518,4;0,008089443
133535;0,008089443
133551,3;0,008130498
133568,4;0,008117302
133586,3;0,00811437
133601;0,008121701
133618,2;0,008123167
133634,1;0,008139296
133650,7;0,008127566
133667,3;0,008130498
133683,9;0,008127566
133700,4;0,008152492
133717;0,008173021
133733,5;0,008139296
133750,1;0,008159824
133766,7;0,008140762
133783,3;0,00811437
133799,8;0,008130498
133816,7;0,008139296
133833,7;0,008175953
133849,9;0,008175953
133866,1;0,008178886
133882,7;0,008193549
133899,5;0,008193549
133915,8;0,008209677
133932,8;0,008215543
133949,7;0,008219942
133965,5;0,008214076
133982,8;0,008193549
133998,6;0,008206745
134015,2;0,008211144
134031,8;0,008222874
134048,5;0,008215543
134064,9;0,008221407
134081,5;0,008246334
134098,2;0,008259531
134114,7;0,008269795
134131,2;0,008282991
134147,7;0,008285924
134164,3;0,008319648
134181,6;0,008365103
134197,4;0,0083739
134214;0,00836217
134230,5;0,008344575
134247,1;0,008347508
134263,7;0,008296188
134280,7;0,008293255
134296,8;0,008321115
134313,5;0,008329912
134329,9;0,008329912
134346,5;0,008340176
134363,1;0,008344575
134379,7;0,008344575
134397;0,008338709
134413,2;0,008344575
134429,4;0,008344575
134446,1;0,008340176
134462,5;0,008335778
134479;0,008341642
134496,6;0,008341642
134512,2;0,008351906
134528,9;0,008332845
134545,3;0,008332845
134561,9;0,008340176
134578,5;0,008346041
134595;0,008334311
134611,6;0,008335778
134628,1;0,008281525
134644,7;0,008281525
134661,4;0,008281525
134678,5;0,00828739
134694,5;0,008288857
134711,1;0,008290322
134727,6;0,008296188
134744,3;0,008291789
134760,7;0,008282991
134777,3;0,008258064
134793,8;0,008258064
134810,4;0,008307918
134827,2;0,008313783
134843,8;0,008329912
134860,9;0,008354839
134876,6;0,008346041
134893,5;0,008354839
134909,8;0,008354839
134926,9;0,008343109
134943,2;0,008348973
134959,5;0,008366569
134976,1;0,008360704
134992,7;0,008366569
135009,5;0,008356305
135025,8;0,008356305
135042,4;0,008398827
135059,5;0,008384164
135076;0,008394429
135092;0,008397361
135108,6;0,008392962
135125,2;0,008388563
135141,9;0,008363636
135158,3;0,008363636
135174,9;0,008376833
135191,5;0,008376833
135208,3;0,008376833
135224,5;0,008375367
135241,1;0,008472141
135257,7;0,0085
135274,3;0,00851173
135290,8;0,008538123
135307,4;0,008539589
135323,9;0,00852346
135340,6;0,008541056
135357,1;0,008541056
135373,7;0,008538123
135390,6;0,00851173
135406,8;0,008505865
135423,3;0,008510264
135439,9;0,008510264
135456,5;0,008507332
135473,6;0,008507332
135489,6;0,00846481
135506,2;0,008432551
135522,8;0,008420821
135539,8;0,008428153
135556,8;0,008445748
135572,6;0,008461877
135589,4;0,008456012
135605,6;0,00846481
135622,1;0,008473607
135638,7;0,008486804
135655,4;0,008461877
135671,8;0,008432551
135688,4;0,00841349
135705;0,008409091
135721,5;0,00841349
135738,1;0,008382699
135755,2;0,008387097
135771,2;0,008400293
135787,8;0,00841349
135804,5;0,008388563
135821,3;0,008395894
135837,6;0,008395894
135854,1;0,008423754
135870,8;0,008400293
135887,4;0,008420821
135904,5;0,008398827
135920,9;0,008397361
135937,1;0,008397361
135954,3;0,008409091
135970;0,00841349
135986,7;0,00841349
136003,2;0,008375367
136019,8;0,008378299
136036,6;0,008375367
136053;0,008378299
136069,6;0,008394429
136086;0,008335778
136102,6;0,008304985
136119,1;0,008294721
136135,7;0,008277127
136152,4;0,008244868
136169;0,008234604
136185,4;0,008195015
136202;0,008243402
136218,5;0,008278592
136235,1;0,008303519
136251,7;0,008303519
136268,3;0,008302053
136285,2;0,008290322
136301,4;0,008303519
136318,1;0,008285924
136334,5;0,008300587
136351,6;0,008302053
136367,6;0,008306452
136384,2;0,008284458
136400,8;0,008303519
136417,6;0,00827566
136433,9;0,008277127
136450,5;0,00828739
136467,4;0,00828739
136483,6;0,00828739
136500,2;0,00828739
136517,5;0,008294721
136533,6;0,008325513
136549,9;0,008334311
136566,7;0,008332845
136583;0,008344575
136599,6;0,008344575
136617,1;0,008354839
136632,7;0,008407624
136649,3;0,008398827
136665,8;0,008382699
136682,4;0,008372434
136699;0,008368035
136715,8;0,008392962
136732,1;0,008388563
136748,7;0,008432551
136765,3;0,008444281
136782,1;0,008473607
136798,4;0,008461877
136814,9;0,008472141
136831,7;0,008454545
136848,5;0,008454545
136865;0,008431085
136881,8;0,00841349
136897,8;0,008423754
136914,4;0,008435484
136930,9;0,008409091
136947,5;0,00842522
136964;0,008426687
136980,6;0,008422287
136997,7;0,008432551
137013,8;0,008409091
137030,3;0,00839003
137047,2;0,00839003
137063,8;0,0083739
137080;0,00836217
137096,6;0,008365103
137113,1;0,008391496
137129,8;0,008391496
137146,3;0,00840176
137162,8;0,008382699
137179,6;0,008372434
137196;0,008326979
137215,3;0,008337243
137229,1;0,008338709
137245,7;0,008313783
137262,7;0,008299121
137278,8;0,008299121
137295,4;0,008277127
137312,1;0,008262464
137328,8;0,008288857
137345,1;0,008299121
137361,9;0,008299121
137378,2;0,008284458
137394,9;0,00828739
137411,3;0,008266862
137428,1;0,008260997
137444,5;0,008288857
137461,2;0,008293255
137477,6;0,008306452
137494,2;0,008304985
137510,8;0,008321115
137527,7;0,008319648
137543,9;0,008312317
137560,4;0,008309384
137577,1;0,008312317
137593,6;0,008288857
137610,2;0,008277127
137627;0,008282991
137643,4;0,008256598
137660,3;0,008272727
137676,8;0,00828739
137693;0,008266862
137709,5;0,008266862
137726,7;0,008217009
137742,7;0,008217009
137759,3;0,008227273
137775,8;0,008219942
137792,4;0,008272727
137809,1;0,008297654
137825,6;0,008285924
137842,1;0,008285924
137858,6;0,008269795
137875,3;0,008258064
137892,4;0,00828739
137908,3;0,008280058
137924,9;0,008293255
137941,9;0,008284458
137958;0,008291789
137974,6;0,008282991
137991,2;0,008285924
138007,8;0,008307918
138024,8;0,008326979
138040,9;0,008321115
138057,5;0,008324047
138074;0,008321115
138091,1;0,008332845
138107,1;0,008335778
138123,7;0,008341642
138140,6;0,0083739
138156,8;0,008394429
138173,4;0,008400293
138190;0,008403226
138206,5;0,008381232
138223,4;0,008368035
138239,7;0,008368035
138257,1;0,00836217
138272,8;0,0083739
138289,4;0,008397361
138306,3;0,008397361
138322,5;0,008397361
138339,1;0,008375367
138355,7;0,008375367
138372,2;0,008379766
138388,8;0,008403226
138405,3;0,008403226
138421,9;0,008416423
138438,5;0,008392962
138455;0,008404693
138471,6;0,00842522
138488,3;0,00842522
138504,8;0,008428153
138521,4;0,008438417
138537,9;0,00842522
138554,4;0,008406159
138571;0,008412024
138587,8;0,008404693
138604,1;0,008379766
138620,8;0,008403226
138637,4;0,008403226
138653,9;0,008392962
138670,4;0,008391496
138687,3;0,008395894
138703,5;0,008404693
138720,1;0,008404693
138736,7;0,008400293
138753,3;0,00836217
138770,6;0,008337243
138786,8;0,008319648
138803;0,008319648
138819,7;0,008296188
138836,1;0,008300587
138852,6;0,008274194
138869,4;0,008282991
138885,8;0,008285924
138902,9;0,008282991
138919;0,008288857
138935,5;0,008341642
138952,1;0,008324047
138969,3;0,008316715
138985,3;0,008309384
139001,7;0,008309384
139018,3;0,008309384
139034,9;0,008331378
139051,5;0,008331378
139068;0,008338709
139084,6;0,008318182
139101,7;0,008307918
139117,7;0,008307918
139134,3;0,008313783
139150,9;0,008315249
139167,4;0,008310851
139184;0,008291789
139200,5;0,008291789
139217,2;0,008277127
139233,7;0,008282991
139250,6;0,008282991
139266,8;0,008277127
139283,4;0,008266862
139300,8;0,00826393
139316,6;0,008256598
139333,1;0,008214076
139349,6;0,008225807
139366,4;0,008222874
139383,4;0,008227273
139399,6;0,008241936
139416;0,00826393
139432,5;0,008253666
139449;0,008244868
139465,7;0,008268328
139482,2;0,00823607
139499;0,008237537
139515,3;0,008256598
139531,9;0,0082522
139548,5;0,008233138
139565,1;0,008225807
139581,8;0,008222874
139598,1;0,008230206
139614,7;0,008237537
139632;0,008231672
139647,8;0,008231672
139664,5;0,008219942
139681;0,008219942
139698,5;0,008215543
139714,1;0,008218476
139730,7;0,008255132
139747,6;0,008231672
139763,8;0,008203813
139780,6;0,008203813
139797,5;0,008165689
139813,5;0,008164223
139830,1;0,008139296
139846,9;0,008104105
139863,2;0,008123167
139879,8;0,008123167
139896,3;0,008123167
139912,9;0,008173021
139929,8;0,008164223
139946;0,008184751
139962,6;0,008199413
139979,2;0,008199413
139996,1;0,008168622
140012,5;0,008165689
140028,9;0,008151026
140046,1;0,008136364
140062,6;0,008140762
140078,6;0,008146628
140095,2;0,00813783
140112;0,00813783
140128,4;0,00813783
140145,1;0,008143695
140161,4;0,008161291
140178;0,008149561
140194,8;0,008136364
140211,1;0,008136364
140227,7;0,008129032
140244,5;0,008121701
140260,8;0,008120235
140277,8;0,008134898
140294,1;0,0081261
140310,6;0,008136364
140327,1;0,008136364
140344,2;0,008112904
140360,8;0,008124634
140376,8;0,008183285
140393,4;0,008158358
140409,9;0,00818915
140427,4;0,00818915
140443,1;0,008165689
140459,7;0,008151026
140476,3;0,008148094
140492,8;0,008155425
140509,3;0,008148094
140526,3;0,008127566
140542,5;0,008149561
140559;0,0081261
140576,2;0,008148094
140592,1;0,008139296
140608,8;0,008153959
140625,5;0,008161291
140641,9;0,008161291
140658,5;0,008156892
140675,4;0,008118768
140691,6;0,008105572
140708,2;0,00809091
140724,7;0,008104105
140741,4;0,008108504
140757,8;0,00809091
140774,4;0,008096774
140791;0,008099707
140807,5;0,008120235
140824,1;0,008117302
140840,7;0,008120235
140858;0,008117302
140873,9;0,008120235
140890,3;0,008107038
140906,9;0,008118768
140923,5;0,008089443
140940,1;0,008089443
140956,9;0,008076247
140973,2;0,008076247
140989,8;0,008055719
141006,3;0,008041056
141023,8;0,008024927
141039,4;0,008032259
141056,2;0,008058651
141072,6;0,008079179
141089,5;0,008087977
141106,3;0,008080645
141122,3;0,008089443
141138,9;0,00807478
141155,4;0,008052786
141172;0,008060117
141188,5;0,008070381
141205,2;0,008104105
141221,7;0,008104105
141238,6;0,008107038
141254,8;0,008107038
141271,4;0,008104105
141288,5;0,008104105
141305;0,008104105
141321,1;0,008112904
141337,6;0,00811437
141354,2;0,008109971
141371,2;0,008142229
141387,3;0,008145161
141404;0,008123167
141420,8;0,008123167
141437,5;0,008089443
141454,1;0,008096774
141470,5;0,008112904
141486,9;0,008112904
141503,3;0,008111437
141519,9;0,008098241
141536,5;0,008101173
141553;0,0081261
141569,7;0,0081261
141586,3;0,008121701
141602,9;0,008121701
141619,3;0,008121701
141636,2;0,008121701
141653,2;0,008156892
141669;0,008209677
141685,9;0,008196482
141702,4;0,008196482
141719;0,008197947
141735,3;0,008197947
141751,8;0,008164223
141768,4;0,008174486
141784,9;0,008177419
141801,5;0,008181819
141818,3;0,008181819
141835,2;0,008175953
141851,2;0,008175953
141867,8;0,008167155
141885;0,008162756
141901;0,008153959
141918;0,008129032
141934,1;0,008133431
141950,6;0,008124634
141967,3;0,008130498
141983,8;0,008134898
142000,3;0,008127566
142016,9;0,008121701
142033,7;0,0081261
142050;0,0081261
142066,6;0,008136364
142083,2;0,008165689
142099,7;0,008165689
142116,3;0,008165689
142133,1;0,008145161
142149,4;0,0081261
142166,3;0,008121701
142182,5;0,008108504
142199,2;0,008108504
142215,7;0,008096774
142232,7;0,008096774
142248,8;0,008096774
142265,4;0,00807478
142282;0,008065983
142298,7;0,008042522
142315,5;0,008055719
142331,7;0,008060117
142348,3;0,008029326
142364,8;0,008008798
142381,3;0,008001466
142398,5;0,008014663
142414,6;0,008014663
142431,7;0,008014663
142447,6;0,008041056
142464,4;0,008019062
142481;0,008027859
142497,3;0,00805132
142514;0,00805132
142530,4;0,008032259
142547,2;0,008045455
142563,6;0,008073314
142580,1;0,008041056
142596,7;0,00806305
142613,3;0,00805132
142630;0,00802346
142646,4;0,008024927
142663;0,008057185
142679,5;0,008052786
142696,3;0,008061584
142712,7;0,00807478
142730;0,008064516
142746,8;0,008079179
142762,4;0,008071847
142779;0,00807478
142795,6;0,008093841
142812,1;0,008098241
142828,6;0,008098241
142845,2;0,008107038
142861,8;0,008107038
142878,4;0,00808651
142895,2;0,008087977
142911,6;0,008118768
142928,3;0,008143695
142944,9;0,008151026
142961,5;0,008195015
142978;0,008215543
142994,3;0,008193549
143011;0,008184751
143027,5;0,008190616
143044;0,008190616
143060,6;0,008199413
143077,2;0,008158358
143093,7;0,008146628
143110,3;0,008152492
143126,9;0,008155425
143143,4;0,008140762
143160,4;0,008148094
143176,5;0,008209677
143193,1;0,008225807
143209,8;0,008205279
143226,2;0,008206745
143242,8;0,008208212
143259,4;0,008206745
143276,7;0,008206745
143292,6;0,008197947
143309,1;0,008197947
143325,7;0,008199413
143342,2;0,008202346
143358,8;0,008206745
143375,8;0,008221407
143391,9;0,008203813
143408,8;0,008208212
143425,2;0,008239003
143441,6;0,0082522
143458,5;0,0082522
143475;0,00823607
143491,5;0,008253666
143508,3;0,00826393
143524,4;0,00826393
143541,1;0,00823607
143562,3;0,008239003
143574,4;0,00822434
143590,7;0,008243402
143608,2;0,008219942
143623,8;0,00822434
143640,5;0,00822434
143657;0,008237537
143673,6;0,008196482
143690,1;0,00820088
143707;0,008208212
143723,3;0,008208212
143740,4;0,008266862
143756,5;0,008294721
143773;0,008306452
143789,5;0,008306452
143806,7;0,008321115
143823,4;0,008332845
143839,2;0,008328446
143856,4;0,008359238
143872,3;0,008384164
143888,9;0,008384164
143905,8;0,008392962
143922;0,008388563
143938,6;0,008400293
143955,4;0,008391496
143971,7;0,008382699
143988,8;0,008382699
144004,9;0,008382699
144021,8;0,008403226
144038;0,008398827
144054,6;0,008395894
144071,7;0,00841349
144087,7;0,008406159
144104,4;0,008412024
144121;0,008412024
144137,4;0,008404693
144154;0,008404693
144171;0,008404693
144187,5;0,00842522
144203,7;0,008431085
144220,9;0,008507332
144237,2;0,008543989
144253,5;0,008538123
144270,1;0,008538123
144286,6;0,008539589
144303,1;0,008564516
144319,6;0,00855132
144337;0,008557185
144353,4;0,008557185
144369,6;0,008532258
144385,9;0,008521995
144402,5;0,00851173
144419;0,008482405
144435,6;0,008491202
144452,2;0,008491202
144474,7;0,008538123
144485,3;0,008507332
144501,9;0,008497068
144518,5;0,008513196
144535;0,008545455
144551,8;0,008527859
144568,5;0,008541056
144584,8;0,008524926
144601,3;0,00852346
144618,4;0,008508798
144634,9;0,0085
144651,1;0,008498534
144667,6;0,008505865
144684,1;0,008529326
144700,8;0,008530792
144717,3;0,008529326
144733,8;0,008519062
144750,4;0,008519062
144767;0,008501466
144783,5;0,008501466
144800,1;0,008510264
144817,1;0,008524926
144833,2;0,00851173
144850,5;0,008507332
144866,3;0,00847654
144882,9;0,008458944
144899,9;0,008454545
144916,2;0,008461877
144932,7;0,00846481
144949,4;0,008472141
144966,3;0,008472141
144982,7;0,00843695
144998,9;0,008461877
145015,4;0,008482405
145032;0,008475074
145048,9;0,008454545
145065,1;0,008467742
145081,8;0,008479472
145098,3;0,008475074
145115,2;0,008497068
145131,4;0,008545455
145148,4;0,008570381
145165;0,008552786
145181,6;0,008530792
145197,7;0,008502932
145214,6;0,008486804
145230,9;0,008486804
145247,4;0,008472141
145264,1;0,008483871
145280,8;0,008533725
145297,5;0,00853519
145313,6;0,00853519
145330,5;0,008552786
145346,8;0,00856305
145363,4;0,008564516
145379,9;0,008570381
145396,5;0,008577713
145413;0,008580646
145429,7;0,008577713
145446,2;0,00858651
145462,8;0,00856305
145479,3;0,008560117
145496,1;0,008558651
145512,5;0,008568916
145529,4;0,008565983
145545,9;0,008585044
145562,2;0,008573314
145578,7;0,008585044
145595,9;0,008582111
145611,9;0,008604106
145628,8;0,008621701
145645,7;0,008592376
145662;0,00856305
145678,1;0,008548387
145694,7;0,008538123
145711,3;0,008539589
145727,8;0,008549853
145744,6;0,008497068
145761;0,008495601
145777,5;0,008485338
145794,5;0,008485338
145810,7;0,008460411
145827,7;0,008467742
145844,2;0,008485338
145861,1;0,008467742
145876,9;0,008472141
145893,7;0,008495601
145910;0,008501466
145926,8;0,008479472
145943,2;0,00847654
145959,8;0,008461877
145976,3;0,008472141
145992,9;0,00846481
146009,5;0,008489736
146026,8;0,008480938
146043,1;0,008480938
146059,1;0,008470675
146076;0,008470675
146092,3;0,008470675
146108,8;0,008466275
146125,9;0,008466275
146142;0,008521995
146158,5;0,008519062
146175,3;0,008495601
146191,7;0,008495601
146208,4;0,008473607
146224,8;0,008454545
146241,5;0,008431085
146258,8;0,008448681
146274,5;0,008469208
146291,1;0,008456012
146307,8;0,008451613
146324,3;0,008444281
146341,2;0,00841349
146357,3;0,008406159
146374,8;0,008432551
146390,5;0,008460411
146407,7;0,008448681
146423,6;0,008445748
146440,9;0,008417889
146456,7;0,008378299
146473,3;0,008378299
146489,9;0,008395894
146506,5;0,00840176
146523;0,00840176
146539,6;0,008391496
146556,3;0,008369502
146572,7;0,008353372
146589,7;0,008343109
146606;0,008332845
146622,4;0,008343109
146639,3;0,008346041
146655,6;0,008365103
146672,1;0,008363636
146688,8;0,008356305
146705,3;0,008356305
146721,8;0,008363636
146738,4;0,008363636
146755,4;0,008359238
146771,5;0,008335778
146788,1;0,008348973
146804,6;0,008363636
146821,2;0,008370968
146838;0,008366569
146854,4;0,008376833
146870,9;0,008397361
146887,5;0,008423754
146904;0,008454545
146921;0,008457478
146937,2;0,008450147
146954,1;0,008450147
146971;0,008479472
146986,9;0,008428153
147003,6;0,008451613
147020;0,008485338
147036,6;0,008497068
147053,1;0,008491202
147069,7;0,00848827
147086,6;0,008497068
147102,8;0,008504399
147119,9;0,008482405
147136,3;0,008417889
147152,5;0,008404693
147169,4;0,008392962
147185,7;0,008392962
147202,9;0,008382699
147218,8;0,008403226
147236;0,008435484
147252;0,008435484
147268,5;0,008412024
147285,4;0,008406159
147301,7;0,008356305
147318,8;0,008354839
147335;0,008338709
147351,3;0,008329912
147367,9;0,008329912
147384,7;0,008312317
147401;0,008302053
147417,6;0,008291789
147434,2;0,008274194
147451;0,008294721
147467,3;0,008271261
147483,9;0,008260997
147500,6;0,008269795
147517,1;0,008280058
147533,6;0,008296188
147550,2;0,008255132
147566,7;0,0082522
147583,3;0,00826393
147599,9;0,008237537
147616,4;0,008237537
147633,8;0,008237537
147650,4;0,008219942
147666,4;0,008253666
147683;0,00826393
147700;0,008247801
147716;0,008247801
147732,4;0,008244868
147749;0,00823607
147765,5;0,008203813
147782,1;0,008187683
147798,6;0,008203813
147815,3;0,008183285
147831,8;0,008181818
147848,4;0,008181818
147865,4;0,008180352
147881,5;0,008161291
147898,2;0,008140762
147914,8;0,008140762
147931,2;0,008140762
147947,8;0,008155425
147964,5;0,008162756
147980,9;0,008162756
147997,5;0,008155425
148014;0,008168622
148030,6;0,008143695
148047,5;0,008143695
148063,8;0,008143695
148080,4;0,008121701
148097,4;0,008120235
148113,4;0,008111437
148130;0,008095308
148146,6;0,008064516
148164,1;0,008065983
148180;0,008068915
148196,3;0,008098241
148213;0,008108504
148229,5;0,00810264
148246,5;0,00810264
148262,5;0,008092375
148279,1;0,008083578
148295,8;0,008083578
148312,4;0,00808651
148328,8;0,008083578
148345,4;0,008112904
148361,9;0,008104105
148378,5;0,00809091
148395;0,008079179
148411,8;0,008080645
148428,2;0,008093841
148444,8;0,008096774
148461,3;0,008096774
148478,2;0,008098241
148494,5;0,008085044
148511;0,008060117
148527,7;0,008060117
148544,3;0,008061584
148560,7;0,008079179
148577,3;0,008080645
148593,8;0,008098241
148611;0,008129032
148627;0,008129032
148643,5;0,008115835
148660,1;0,008107038
148676,8;0,008112904
148693,3;0,008131965
148709,8;0,008149561
148726,5;0,008149561
148743;0,008366569
148759,8;0,008703812
148776,5;0,00871261
148792,9;0,00873607
148809,4;0,008734604
148826;0,009178886
148842,3;0,009329912
148858,9;0,009412023
148875,7;0,009412023
148892;0,009492668
148908,6;0,009700879
148925,2;0,009734605
148941,8;0,009722874
148958,4;0,009722874
148974,9;0,009755132
148992;0,009972141
149008;0,0101437
149024,6;0,01027126
149041,2;0,01026979
149058;0,01028006
149074,3;0,01028006
149090,8;0,01023167
149107,4;0,01022727
149124,1;0,01023754
149140,6;0,01024927
149157,1;0,01034751
149174,3;0,01035924
149190,4;0,01039003
149206,9;0,01044575
149223,7;0,01042522
149240,5;0,01041202
149256,6;0,01041202
149273,8;0,01041935
149289,6;0,01041935
149306,2;0,01041496
149322,8;0,0104956
149339,5;0,01062023
149355,9;0,01062023
149372,8;0,01078739
149389,3;0,01080205
149405,6;0,01077419
149422,2;0,01082405
149438,8;0,01084458
149455,3;0,01080645
149472,2;0,01081525
149488,5;0,01081378
149505;0,01078592
149521,9;0,01080938
149538,1;0,01088416
149554,7;0,01094282
149572;0,01090909
149587,8;0,01090176
149605;0,01083284
149621;0,01085044
149637,7;0,01083724
149654,2;0,01083724
149670,8;0,01098387
149687,5;0,01122287
149703,8;0,01124487
149720,7;0,01120381
149737;0,01119941
149753,7;0,01120675
149770,7;0,01119941
149786,8;0,01120821
149803,2;0,01120821
149819,8;0,01124633
149837,2;0,01135191
149852,9;0,01144721
149870;0,01144868
149886,4;0,01155572
149902,9;0,01155572
149919,2;0,01156598
149936,2;0,01157625
149952,3;0,01153519
149968,9;0,01160117
149985,7;0,01159824
150002,6;0,01170088
150018,6;0,0118871
150035,2;0,01187097
150051,7;0,01198827
150068,3;0,01196041
150085,4;0,01197507
150101,4;0,01200147
150118,3;0,0122522
150134,6;0,0122522
150151,1;0,01227126
150167,8;0,01244282
150184,3;0,01246334
150200,8;0,01246921
150217,7;0,01246921
150234;0,0126305
150250,5;0,0126085
150267,1;0,01261877
150283,7;0,01262463
150300,2;0,01264369
150316,8;0,01264369
150333,3;0,0126085
150350,5;0,01260704
150366,5;0,01261584
150383;0,01272727
150399,6;0,01270968
150416,2;0,01272141
150432,7;0,01279179
150449,5;0,01282698
150465,9;0,01283871
150483;0,01282258
150499,8;0,01279619
150515,7;0,01279619
150532,2;0,0127698
150548,7;0,01276246
150565,7;0,01276393
150582,8;0,01277566
150598,4;0,01304106
150615;0,01298387
150631,5;0,01297947
150648,3;0,01293255
150664,7;0,01293402
150681,5;0,01296041
150697,8;0,01296481
150714,4;0,01293842
150731,2;0,01289296
150748,1;0,01245308
150764,1;0,01226686
150781,3;0,01220235
150797,9;0,01220235
150820,9;0,01204839
150830,4;0,0118783
150847;0,01144721
150863,7;0,01144281
150880,4;0,01139443
150896,6;0,01109238
150913,7;0,0109868
150929,8;0,01096774
150946,5;0,01093108
150962,9;0,01093695
150979,5;0,01096334
150996;0,01096334
151012,6;0,01082991
151029,2;0,01072141
151045,8;0,01082698
151062,3;0,01082405
151078,9;0,01078592
151095,4;0,01079032
151112,1;0,01074927
151128,5;0,01066129
151145,1;0,01066862
151162,3;0,01059531
151178,3;0,01059531
151194,8;0,01056305
151212,1;0,01056745
151228,5;0,01065396
151244,5;0,01078446
151261,1;0,01074487
151278,3;0,01074487
151294,5;0,01067449
151310,8;0,01067595
151327,5;0,01058064
151343,9;0,01043548
151360,5;0,0103783
151377,1;0,01032258
151393,8;0,01046334
151410,2;0,01057771
151427;0,01052933
151443,3;0,01045015
151459,9;0,01043695
151476,4;0,01043695
151493;0,01037537
151509,7;0,01036657
151526,1;0,01025367
151542,7;0,01025367
151559,3;0,01010997
151575,8;0,0101305
151592,4;0,01012903
151609,2;0,01012023
151625,5;0,01012023
151642,1;0,01011437
151658,8;0,01002786
151675,3;0,01026246
151691,8;0,01017009
151709,3;0,01018182
151724,9;0,01020235
151741,7;0,01019941
151758,1;0,01019941
151774,6;0,01011877
151791,4;0,01014076
151807,8;0,01010557
151824,3;0,01009824
151840,9;0,01007185
151857,5;0,01004692
151874;0,009790323
151891,2;0,009607038
151907,2;0,009573313
151923,9;0,009590909
151940,4;0,009604106
151956,9;0,009539589
151973,5;0,009461877
151990,7;0,009461877
152006,6;0,009461877
152023,1;0,00908651
152040,4;0,00906305
152056,3;0,008957478
152073,3;0,00892522
152089,9;0,008888563
152106,3;0,008794721
152122,5;0,008593841
152139,2;0,008599707
152156,6;0,008580646
152172,2;0,008438417
152189,2;0,008347508
152205,4;0,008357772
152222,1;0,008302053
152238,5;0,008302053
152255,1;0,008209677
152272,1;0,008205279
152288,2;0,008205279
152304,8;0,00808651
152321,3;0,008089443
152337,9;0,008076247
152354,5;0,008076247
152371;0,008064516
152387,6;0,007891496
152404,2;0,00792522
152420,8;0,00792522
152437,6;0,008104105
152454,3;0,008038123
152470,4;0,008067449
152487;0,008064516
152503,6;0,008024926
152520,5;0,008019062
152536,7;0,008024926
152553,5;0,007976539
152569,8;0,007709677
152586,4;0,007709677
152603;0,007674487
152619,9;0,007674487
152636,1;0,007668622
152652,7;0,007788857
152669,6;0,007865103
152685,8;0,00777566
152702,4;0,007769795
152719;0,007769795
152735,5;0,007794722
152752,1;0,007794722
152768,8;0,007785924
152785,2;0,007788857
152801,9;0,007793255
152818,5;0,007819648
152835,8;0,0078739
152851,5;0,007882698
152868;0,00789003
152884,6;0,007875367
152901,9;0,007876833
152917,7;0,007906158
152934,3;0,00791349
152951;0,00788563
152967,7;0,007881232
152984,1;0,007579179
153000,6;0,007467742
153017,2;0,007365103
153033,7;0,007309384
153051,1;0,007309384
153066,8;0,007409091
153084;0,007645161
153100;0,007645161
153116,5;0,007659824
153133,1;0,007648094
153149,9;0,007646628
153166,3;0,00764956
153182,8;0,007624634
153199,4;0,0073739
153216,2;0,007318182
153232,5;0,007233138
153249,1;0,007237537
153266;0,007237537
153282,2;0,007253666
153299,5;0,00722434
153315,4;0,00722434
153332;0,007233138
153348,5;0,007244868
153365,3;0,007258065
153382,4;0,007195015
153398,2;0,007195015
153414,8;0,00693695
153431,5;0,006931085
153448,7;0,00693695
153464,5;0,006991202
153481;0,006995601
153497,6;0,00723607
153514,2;0,00741349
153530,7;0,007555719
153547,3;0,007604106
153563,9;0,007589443
153581,2;0,007552786
153597,3;0,007585044
153613,6;0,007585044
153630,1;0,007623167
153646,7;0,007640763
153663,6;0,007325513
153679,8;0,007325513
153696,4;0,007121701
153713;0,007121701
153729,5;0,007121701
153746,1;0,007115836
153762,7;0,007118769
153779,8;0,007129032
153796;0,007145161
153812,5;0,007148094
153829,4;0,007177419
153845,9;0,007233138
153862;0,007241935
153878,7;0,007265396
153895,6;0,007260997
153911,8;0,007260997
153928,3;0,007260997
153944,9;0,007321115
153961,8;0,007341642
153978;0,007351906
153994,6;0,007360704
154011,8;0,007431085
154027,7;0,007464809
154044,3;0,00744868
154060,9;0,007450147
154077,4;0,007450147
154094,5;0,007454546
154110,6;0,007400293
154127,8;0,007407625
154143,7;0,007344575
154160,3;0,007344575
154177,1;0,007306452
154193,4;0,007306452
154210;0,007419355
154226,5;0,007392962
154244,1;0,007565983
154259,7;0,007558651
154276,2;0,00756305
154293,1;0,00757478
154309,7;0,007546921
154325,9;0,007532258
154342,6;0,007535191
154359,3;0,007535191
154375,6;0,007545454
154392,2;0,007533724
154408,8;0,007538123
154425,3;0,007548387
154441,9;0,007582111
154458,6;0,007516129
154475;0,007385631
154491,6;0,007410557
154508,1;0,007420821
154524,7;0,007400293
154541,3;0,007527859
154558;0,007527859
154574,4;0,007570381
154591;0,007602639
154607,5;0,007617302
154624,1;0,007620235
154640,7;0,007620235
154657,3;0,007420821
154673,8;0,007403226
154690,4;0,007376833
154706,9;0,007395894
154723,9;0,007422287
154740,1;0,007460411
154757,4;0,007834311
154773,2;0,007948681
154789,8;0,00823607
154806,3;0,00823607
154822,9;0,008233138
154840,1;0,008181818
154856,2;0,008214076
154872,9;0,008217009
154889,2;0,008217009
154905,8;0,008227273
154922,7;0,008208212
154938,9;0,008218475
154955,4;0,008218475
154972,6;0,00824047
154988,6;0,008312317
155005,1;0,008337243
155021,8;0,008337243
155038,3;0,008360703
155054,8;0,008360703
155071,4;0,008312317
155088;0,007931085
155105,3;0,007931085
155121,1;0,007942815
155137,7;0,007945748
155154,3;0,007966275
155170,8;0,007994135
155187,4;0,008027859
155204;0,008258064
155220,6;0,008334311
155237,1;0,008382698
155254,2;0,008368035
155270,2;0,008370968
155287,1;0,008381232
155303,6;0,008409091
155319,9;0,008410557
155337,6;0,008406159
155353,2;0,008486804
155369,6;0,008634898
155386,5;0,008659824
155402,7;0,008646628
155419,3;0,008623167
155435,9;0,00863783
155452,5;0,00863783
155469;0,008617302
155485,7;0,008520528
155502,2;0,008438417
155518,7;0,008324047
155535,4;0,008196481
155551,8;0,00805132
155568,4;0,008067449
155585;0,00807478
155602,3;0,008109971
155618,1;0,008250733
155634,7;0,008253666
155651,3;0,008280058
155668;0,008354839
155684,7;0,008354839
155700,9;0,008648094
155717,5;0,009095308
155734,1;0,009293255
155750,8;0,009266863
155767,2;0,009268329
155784,2;0,009268329
155801,1;0,009260997
155817;0,009300587
155833,5;0,009244869
155850,7;0,009258064
155866,6;0,0092478
155883,2;0,009309384
155900,1;0,009309384
155916,7;0,00946481
155933,5;0,009467742
155949,5;0,009470674
155966;0,009422287
155983;0,009458944
155999,1;0,009458944
156016,1;0,009426686
156032,6;0,009466276
156049,3;0,009753666
156065,8;0,009810851
156082,6;0,009848974
156098,6;0,009843108
156115,1;0,009873901
156131,7;0,009885631
156148,3;0,01020675
156164,8;0,0102346
156182,1;0,01023754
156198,4;0,01023754
156215,5;0,01017889
156231,1;0,01006305
156250,6;0,01009971
156264,2;0,01008504
156280,9;0,01021114
156297,4;0,01027126
156313,9;0,01029472
156330,8;0,01029472
156347,2;0,01031378
156363,7;0,01035924
156380,2;0,01033431
156396,8;0,01030352
156413,3;0,010261
156430,6;0,01026979
156446,4;0,01028592
156463,1;0,01031085
156479,6;0,01031085
156496,8;0,01031232
156512,7;0,01032111
156529,3;0,01030059
156545,9;0,01026979
156562,5;0,01026979
156579,6;0,0101305
156595,5;0,0101305
156612,1;0,01018768
156629,5;0,01029179
156645,3;0,01040469
156662,4;0,01039736
156678,4;0,01039883
156695,6;0,01045748
156711,5;0,01045161
156728,1;0,01045601
156744,6;0,01028592
156761,2;0,01000587
156778;0,009785924
156794,3;0,009671554
156811;0,009667155
156827,5;0,009573314
156844,7;0,009542522
156860,6;0,009482405
156877,3;0,009482405
156893,8;0,009577713
156910,6;0,009592376
156926,9;0,009590909
156943,5;0,009590909
156960,2;0,009580646
156976,6;0,009568915
156993,2;0,009475074
157010,2;0,009456011
157026,3;0,009489737
157042,8;0,009489737
157059,5;0,009530792
157076;0,009560117
157093,2;0,009640763
157109,1;0,009643695
157126;0,009664223
157142,3;0,009681818
157158,8;0,009693548
157175,4;0,009718475
157191,9;0,009639297
157208,9;0,009370968
157225,1;0,009318182
157241,7;0,009296188
157258,3;0,009302053
157274,8;0,009318182
157291,7;0,009328445
157307,9;0,009321114
157324,7;0,009412023
157341,1;0,009492668
157357,6;0,009363636
157374,2;0,009266863
157391,2;0,009281525
157407,3;0,009272727
157424,7;0,009284457
157440,6;0,009284457
157457;0,00927566
157474,1;0,009233138
157490,1;0,009280059
157507,3;0,009343108
157523,6;0,009348974
157539,8;0,009444281
157556,4;0,009434017
157573,2;0,009450147
157589,8;0,009456011
157606,3;0,009456011
157622,7;0,009444281
157639,4;0,009214076
157655,8;0,009104106
157672,7;0,0087522
157689,4;0,0087522
157705,8;0,008463344
157723;0,008225807
157738,6;0,008219942
157755,2;0,008199413
157772,5;0,008221407
157788,4;0,008284458
157804,9;0,008335778
157821,6;0,008378299
157838;0,008378299
157854,6;0,008460411
157871,2;0,008473607
157887,7;0,008426687
157904,3;0,008369502
157921,5;0,008280058
157937,5;0,008205279
157954;0,00821261
157970,8;0,00821261
157987,2;0,008145161
158004,1;0,008142229
158020,3;0,008073314
158036,8;0,00793695
158053,4;0,007816715
158076,7;0,007744868
158086,8;0,007755132
158103,1;0,007743402
158119,7;0,007674487
158136,3;0,007467742
158153,1;0,007406158
158169,5;0,007406158
158186,5;0,007392962
158203,4;0,007392962
158219,1;0,007406158
158236;0,007406158
158252,3;0,007385631
158268,8;0,007384164
158285,3;0,007331378
158301,9;0,00767302
158318,5;0,007721408
158335;0,007750733
158352,3;0,00789003
158368,2;0,007991202
158385,5;0,008244868
158401,3;0,008244868
158417,9;0,008227273
158434,5;0,008205279
158451;0,008322581
158467,9;0,008576246
158484,1;0,008609971
158500,8;0,008878299
158517,6;0,008895895
158534,4;0,00907478
158550,4;0,009071847
158567;0,009071847
158583,5;0,009064516
158600,1;0,009071847
158616,7;0,009080646
158633,8;0,008932551
158649,9;0,008826979
158666,9;0,008848974
158683,5;0,008848974
158699,5;0,008809384
158716,1;0,008819648
158733,4;0,008809384
158749,2;0,008837244
158765,8;0,008826979
158782,4;0,008888563
158799,1;0,008891496
158816;0,008891496
158832,4;0,00894868
158848,6;0,00894868
158865,2;0,00894868
158881,8;0,008957478
158899;0,00889736
158915,2;0,009096774
158931,5;0,009134897
158948;0,009173021
158964,7;0,009186217
158981,2;0,009225806
158997,7;0,009265396
159014,4;0,009337244
159031,3;0,009376833
159048,4;0,009368035
159064;0,009428153
159080,9;0,009428153
159097,6;0,009348974
159113,7;0,009356305
159130,3;0,009365102
159146,8;0,009379765
159163,4;0,009356305
159180,8;0,009398827
159196,9;0,009461877
159213,8;0,009530792
159229,9;0,009551319
159246,2;0,009579179
159262,8;0,009617303
159279,3;0,0096261
159296,6;0,009643695
159312,5;0,009609971
159329;0,009655425
159345,8;0,009607038
159362,2;0,009607038
159378,8;0,009627566
159395,3;0,009703812
159412,2;0,009743402
159428,8;0,009774193
159445;0,009813783
159461,6;0,01003226
159478,4;0,01009531
159494,8;0,01009531
159511,3;0,01006745
159527,8;0,01006745
159544,4;0,01002933
159561,3;0,01004692
159577,6;0,01011144
159594,1;0,0101305
159610,7;0,01018915
159627,3;0,01020968
159643,8;0,01020968
159660,4;0,01042082
159676,9;0,01042375
159693,5;0,0103739
159710,3;0,01043548
159726,8;0,01045455
159743,8;0,0104868
159759,8;0,0104868
159776,4;0,01048387
159792,9;0,01046188
159809,9;0,01046921
159826;0,01046774
159842,7;0,01046774
159859,2;0,01038123
159875,8;0,0103827
159892,6;0,0103739
159909,2;0,01038416
159926;0,01039736
159942;0,01044428
159959;0,01047361
159975,1;0,01047067
159991,7;0,01047654
160008,7;0,01051026
160025,3;0,01056012
160041,4;0,01056012
160058,2;0,01056745
160074,5;0,01060557
160091,1;0,01061437
160107,8;0,0106261
160124,6;0,0106261
160140,8;0,0106393
160157,4;0,01065103
160174;0,01065103
160190,7;0,01070088
160207,3;0,0107654
160223,6;0,01081818
160240,6;0,01081085
160256,8;0,01078446
160273,5;0,01036364
160290,4;0,01020968
160306,5;0,01015982
160323,3;0,01015982
160339,9;0,01015982
160357;0,01002053
160372,8;0,009910557
160389,6;0,009794721
160405,9;0,00971261
160422,9;0,009755132
160439;0,009671554
160455,6;0,009615836
160472,2;0,009260997
160488,7;0,009107038
160505,3;0,009115836
160521,8;0,009115836
160538,4;0,009039589
160555;0,009027859
160571,9;0,009080646
160588,1;0,009079179
160604,7;0,009079179
160621,4;0,009109971
160637,8;0,009152493
160655;0,009218475
160671;0,00926393
160687,5;0,009300587
160704,1;0,009321114
160720,7;0,009351906
160737,6;0,009360704
160753,8;0,009375366
160770,4;0,009406159
160786,9;0,00939736
160803,5;0,009410557
160820;0,009366569
160836,6;0,009369502
160853,3;0,0093739
160869,8;0,009354839
160886,4;0,009294721
160902,9;0,009180352
160920;0,009168622
160937,2;0,009177419
160952,6;0,009167155
160969,2;0,009193549
160986;0,009195015
161002,3;0,009195015
161019,1;0,009148094
161035,8;0,009101173
161052;0,009064516
161068,5;0,009070382
161085,1;0,009070382
161101,8;0,009080646
161118,2;0,009048387
161134,8;0,009076246
161151,6;0,00908651
161168,2;0,009090909
161184,8;0,009033725
161201,1;0,00905132
161217,9;0,009045455
161234,2;0,009038123
161251;0,009042522
161267,3;0,009004399
161284,3;0,008994135
161300,5;0,009001466
161317,8;0,008978006
161333,6;0,008938417
161350,2;0,008935484
161366,8;0,008944281
161383,3;0,008888563
161401;0,008870968
161416,6;0,008870968
161433,3;0,008863636
161450,5;0,008857772
161466,7;0,008824047
161483,2;0,008670088
161499,7;0,008612904
161515,9;0,008612904
161532,4;0,008612904
161549;0,008643695
161565,5;0,008621701
161582,1;0,008599707
161598,8;0,008589443
161615,3;0,008564516
161631,9;0,008519062
161648,4;0,008372434
161665;0,008324047
161682;0,008324047
161698,1;0,008285924
161714,6;0,008247801
161731,6;0,008239003
161747,8;0,008250733
161764,4;0,008250733
161781,8;0,008231672
161797,5;0,008214076
161814;0,008208212
161830,6;0,008195015
161847,3;0,008187683
161863,8;0,008211144
161880,7;0,008218476
161897;0,008234604
161913,5;0,008244868
161930,2;0,008243402
161946,6;0,008258064
161963,4;0,008258064
161979,9;0,008262464
161996,3;0,00826393
162012,8;0,008259531
162029,4;0,008244868
162046;0,008243402
162062,8;0,008246334
162079,1;0,008225807
162096,2;0,008225807
162112,4;0,008217009
162128,8;0,008203813
162145,4;0,00822434
162161,9;0,008206745
162178,5;0,008225807
162195,4;0,008211144
162211,7;0,008211144
162228,2;0,008206745
162244,8;0,008214076
162261,4;0,008218476
162278;0,008243402
162295;0,00821261
162311;0,00822434
162327,6;0,008239003
162344,2;0,008239003
162360,9;0,00822434
162378;0,008239003
162393,9;0,008215543
162410,5;0,008215543
162427;0,008178886
162444,1;0,008142229
162460,1;0,008148094
162476,8;0,008161291
162493,5;0,008173021
162509,8;0,00818915
162526,7;0,008199413
162543,6;0,008218476
162559,8;0,008199413
162576,2;0,00818915
162592,7;0,008161291
162609,3;0,008168622
162625,8;0,008170088
162642,4;0,008170088
162659;0,008131965
162676,1;0,00803959
162692,4;0,00802346
162708,7;0,008021994
162726;0,008021994
162741,8;0,007994135
162758,3;0,008024927
162775,6;0,008030792
162791,5;0,008036657
162808,1;0,008046921
162824,9;0,008058651
162841,2;0,008061584
162858,2;0,008061584
162874,3;0,008089443
162890,9;0,008082111
162907,5;0,008112904
162924;0,008112904
162940,6;0,008131965
162957,2;0,008105572
162973,7;0,008107038
162990,3;0,008101173
163006,8;0,008111437
163023,4;0,008111437
163040;0,008095308
163056,5;0,008079179
163073,1;0,008052786
163090,5;0,008076247
163106,3;0,00810264
163122,8;0,00810264
163139,4;0,008109971
163156,2;0,008073314
163172,6;0,008054253
163189,1;0,008054253
163205,6;0,008077713
163222,2;0,00807478
163238,8;0,008071847
163255,3;0,00806305
163272,4;0,008080645
163288,5;0,00811437
163305;0,008095308
163321,7;0,008098241
163338,8;0,008107038
163355;0,008120235
163371,3;0,008120235
163388,2;0,008098241
163404,6;0,00810264
163421,5;0,008120235
163438,2;0,008112904
163454,3;0,008112904
163470,7;0,008123167
163487,3;0,008071847
163503,8;0,008101173
163520,4;0,008101173
163537,7;0,008108504
163553,5;0,008079179
163570,1;0,00807478
163586,7;0,008083578
163603,3;0,008083578
163620,5;0,008140762
163636,6;0,008162756
163652,9;0,008149561
163669,5;0,008134898
163686,1;0,008134898
163702,8;0,008196482
163719,6;0,008187683
163735,8;0,008205279
163752,6;0,008205279
163769;0,008228739
163786,2;0,008249267
163802,1;0,008268328
163818,6;0,008281525
163835,7;0,008266862
163851,8;0,008259531
163868,3;0,008253666
163884,9;0,0082522
163901,4;0,008282991
163918;0,008265396
163934,9;0,008300587
163951,5;0,008303519
163968;0,008278592
163984,5;0,008278592
164000,8;0,008309384
164017,4;0,008296188
164034;0,008278592
164050,6;0,008310851
164067,2;0,008334311
164083,8;0,008324047
164100,4;0,00835044
164116,8;0,008348973
164133,4;0,008340176
164150;0,008343109
164167,1;0,008363636
164183,1;0,008357772
164199,7;0,008394429
164216,2;0,008392962
164233,8;0,008394429
164249,4;0,008417889
164266,1;0,008423754
164282,7;0,008463344
164299,1;0,008463344
164315,6;0,008447214
164332,2;0,008472141
164349,7;0,00847654
164365,4;0,00847654
164381,9;0,008448681
164398,7;0,008453079
164415;0,00847654
164431,6;0,008489736
164448,2;0,008489736
164464,7;0,00847654
164481,4;0,008457478
164497,8;0,008445748
164515;0,008435484
164531;0,008439883
164547,6;0,008410557
164564,1;0,008422287
164580,7;0,008404693
164597,3;0,008414956
164613,8;0,008414956
164630,4;0,008422287
164646,9;0,008441349
164663,5;0,008438417
164680,1;0,008438417
164696,6;0,008447214
164713,2;0,008457478
164729,8;0,008475074
164746,5;0,008491202
164762,9;0,008473607
164779,5;0,008475074
164796,1;0,00848827
164812,6;0,008498534
164829,8;0,008498534
164845,8;0,008495601
164862,3;0,008467742
164878,9;0,008444281
164895,5;0,008435484
164912,5;0,008439883
164928,6;0,008466275
164945,1;0,008460411
164962,1;0,008461877
164978,3;0,008467742
164994,8;0,008494135
165011,4;0,008485338
165028;0,008485338
165044,5;0,008485338
165061,4;0,0085
165077,7;0,008541056
165094,3;0,008520528
165110,8;0,008508798
165127,4;0,008508798
165144,3;0,008579179
165160,5;0,00859091
165177,1;0,008587977
165194,2;0,008576247
165210,3;0,008580646
165226,8;0,008587977
165243,3;0,008601173
165259,9;0,008601173
165276,5;0,00861437
165293,1;0,00861437
165309,6;0,008582111
165326,2;0,008557185
165342,8;0,008557185
165359,3;0,008549853
165376,3;0,008565983
165392,4;0,008549853
165409;0,008526393
165425,6;0,008552786
165442,8;0,008565983
165459,4;0,008542522
165475,9;0,008542522
165492,1;0,008571847
165508,4;0,008589443
165525,1;0,008601173
165541,5;0,008592376
165558,1;0,008627567
165575,4;0,008624634
165591,3;0,008630498
165607,9;0,008611437
165624,4;0,008621701
165641;0,008611437
165658,2;0,008618768
165674,1;0,008618768
165690,6;0,008630498
165707,4;0,008621701
165723,8;0,008640762
165740,3;0,008634898
165757,2;0,008653959
165773,7;0,008661291
165790;0,008674487
165806,6;0,008689149
165823,2;0,008706745
165839,9;0,008734604
165856,3;0,008739003
165873,2;0,008746334
165889,6;0,008737537
165906;0,008737537
165922,7;0,008760997
165939,5;0,008762463
165956,2;0,008772727
165972,3;0,008759531
165988,8;0,008782991
166005,7;0,008802053
166022,6;0,008802053
166038,6;0,008821115
166055,1;0,008838709
166071,7;0,008840176
166088,7;0,008891496
166105,3;0,008926686
166121,4;0,008967742
166138,1;0,008966275
166154,5;0,008954545
166171,3;0,008975074
166188;0,008979472
166204,5;0,008982405
166221,5;0,009004399
166237,3;0,009016129
166253,9;0,009016129
166270,5;0,00905132
166287,1;0,009054252
166304,1;0,00908651
166320,3;0,009090909
166336,8;0,009077713
166353,3;0,009121701
166370,5;0,009123167
166386,4;0,009146628
166403;0,009167155
166419,6;0,009180352
166436,8;0,009189149
166458,8;0,009219942
166469,3;0,009225806
166485,8;0,009225806
166502,4;0,009243402
166519,6;0,0092522
166535,5;0,009243402
166552,1;0,009244869
166569,2;0,009244869
166585,3;0,009316715
166602,3;0,009366569
166618,4;0,009394429
166635;0,009394429
166651,5;0,009409091
166668,1;0,009429619
166685,2;0,009420821
166701,3;0,00942522
166717,8;0,009414956
166734,5;0,009406159
166750,9;0,00941349
166767,8;0,00941349
166784,1;0,009378299
166801,1;0,009388563
166817,2;0,009382698
166833,8;0,009406159
166850,3;0,009382698
166866,9;0,00946481
166883,9;0,009483871
166900,3;0,009478006
166917,1;0,009461877
166933,2;0,009466276
166949,7;0,009469208
166966,3;0,009507331
166982,8;0,009491202
167000;0,00948827
167016,3;0,009529325
167032,5;0,009567449
167049,1;0,009579179
167065,7;0,00957478
167082,8;0,009590909
167098,8;0,009612903
167115,4;0,009612903
167131,9;0,009587977
167148,5;0,009571848
167165,1;0,009568915
167181,7;0,009568915
167198,6;0,009590909
167214,9;0,009621701
167231,4;0,009611437
167248,1;0,009646628
167265;0,009640763
167281,1;0,00964956
167297,6;0,00963783
167314,2;0,009699414
167330,8;0,009709678
167347,8;0,009719942
167363,9;0,009719942
167380,5;0,009741936
167402,6;0,00978739
167413,6;0,009788857
167430,4;0,00978739
167446,7;0,009807918
167463,3;0,009819648
167479,8;0,009824047
167496,5;0,009818182
167513,5;0,009818182
167529,5;0,009818182
167546,1;0,009821114
167562,7;0,00983871
167579,3;0,009831378
167596,3;0,009831378
167613;0,009868035
167629;0,009872434
167646,3;0,009917889
167662,1;0,009906159
167678,7;0,009903226
167695,3;0,009906159
167711,8;0,009919355
167728,9;0,009919355
167744,9;0,009947214
167761,6;0,00994868
167778;0,009945747
167794,6;0,009945747
167811,2;0,009939883
167828,2;0,009939883
167845,1;0,009934017
167861,3;0,009935484
167877,4;0,009939883
167894;0,00992522
167910,6;0,009920822
167927,1;0,009920822
167944;0,00993695
167960,8;0,009967742
167976,9;0,009957478
167993,4;0,009944282
168010,2;0,009942816
168027,2;0,009931085
168043,1;0,009931085
168060,1;0,009942816
168076,3;0,009951613
168092,8;0,009914956
168109,5;0,009868035
168126;0,009868035
168142,8;0,009843108
168159,1;0,009854839
168175,7;0,009854839
168192,4;0,009868035
168208,8;0,009870968
168225,8;0,009875366
168242,3;0,009878299
168258,5;0,009851906
168275;0,009802053
168291,7;0,00976393
168308,2;0,009762463
168324,8;0,009762463
168341,3;0,009777126
168357,9;0,009777126
168375;0,00978739
168391,5;0,009790323
168408,2;0,009768329
168424,2;0,009782991
168440,7;0,009797654
168457,4;0,009797654
168473,8;0,00979912
168490,4;0,00979912
168507,4;0,009790323
168523,5;0,009822581
168540,1;0,009824047
168557,2;0,009824047
168573,4;0,009818182
168589,8;0,009834311
168606,4;0,009822581
168622,9;0,009831378
168639,7;0,009837244
168656,1;0,00982698
168672,7;0,009825514
168689,7;0,009825514
168705,8;0,009854839
168722,5;0,009873901
168738,9;0,009873901
168755,6;0,009878299
168772;0,009895895
168788,8;0,00991349
168805,5;0,009920822
168821,8;0,009939883
168838,3;0,009970674
168855;0,00997654
168871,7;0,009966276
168888,1;0,009966276
168904,8;0,009975074
168921,1;0,00997654
168937,9;0,009973607
168954,3;0,00998827
168970,9;0,01001906
168988,1;0,01002786
169004;0,01003959
169020,8;0,0100176
169037,6;0,0100176
169054,1;0,01000293
169070,3;0,01000733
169086,8;0,01000733
169103,6;0,01001466
169120;0,009998534
169136,5;0,009998534
169153,1;0,01001906
169169,9;0,01005718
169186,5;0,01007625
169203;0,01007918
169219,4;0,01007185
169235,9;0,01007771
169252,6;0,01008358
169269;0,01008358
169285,6;0,01008358
169302,2;0,01007771
169318,7;0,01007038
169335,3;0,01007625
169352,1;0,01008211
169368,5;0,01010557
169385,2;0,0101305
169401,7;0,01013343
169418,7;0,01012757
169434,7;0,0101437
169451,3;0,01015689
169468;0,01015103
169484,5;0,01013196
169501;0,0101261
169517,5;0,0101261
169534,1;0,01017889
169550,8;0,01018182
169567,3;0,01020821
169583,8;0,01020968
169600,4;0,01021994
169617;0,01021848
169633,5;0,01020675
169650,7;0,01020235
169666,6;0,01018622
169683,2;0,01019501
169699,8;0,01016569
169716,4;0,01015982
169732,9;0,01016862
169749,5;0,01015982
169766;0,01014663
169783,3;0,01014809
169799,2;0,01010411
169815,9;0,01012757
169833,1;0,01009384
169849,8;0,01009384
169865,6;0,01009677
169882,6;0,01009971
169898,6;0,01010411
169915,1;0,0101173
169931,7;0,01011144
169948,3;0,01011437
169964,8;0,01009531
169981,4;0,01010117
169998,5;0,01010117
170015;0,0101217
170031,6;0,01012463
170047,7;0,01013636
170064,3;0,01013636
170081;0,01011584
170097,4;0,0101437
170114,2;0,01012463
170130,5;0,01012463
170147,1;0,01010411
170163,7;0,01010264
170180,2;0,01006598
170196,8;0,01006012
170213,3;0,01004692
170230,4;0,01005572
170246,9;0,01006745
170263;0,01007185
170279,6;0,01008504
170296,5;0,01007625
170313,1;0,0101129
170329,3;0,0101129
170346;0,01013343
170362,4;0,0101349
170379;0,0101349
170395,6;0,01011877
170412,5;0,01011877
170428,7;0,01012317
170445,5;0,01003959
170461,9;0,0100176
170479;0,0100088
170495,1;0,01002493
170511,8;0,01000293
170528,1;0,01000293
170544,7;0,01002053
170561,3;0,009973607
170577,8;0,00995308
170595;0,009938417
170611;0,009935484
170627,7;0,00991349
170644,1;0,009912023
170660,7;0,00992522
170677,3;0,009932552
170693,8;0,009912023
170710,3;0,009912023
170726,9;0,009897361
170743,5;0,009884165
170760,1;0,009885631
170776,6;0,009884165
170793,7;0,009847508
170809,8;0,009847508
170826,6;0,009821114
170842,9;0,009809384
170859,5;0,009796188
170876,1;0,009835777
170892,8;0,009859238
170909,3;0,009854839
170925,9;0,009856305
170942,3;0,009854839
170959,2;0,009854839
170975,4;0,009818182
170992;0,009807918
171008,5;0,009791789
171025,1;0,009778593
171041,7;0,00977566
171058,3;0,009793255
171075,1;0,00978739
171091,4;0,00978739
171107,9;0,009794721
171124,5;0,009797654
171141,1;0,009784457
171159,8;0,009769795
171174,4;0,009746335
171190,8;0,0097478
171207,4;0,0097478
171224,3;0,009759531
171240,5;0,009765396
171257;0,009759531
171273,6;0,009769795
171290,3;0,009772727
171306,8;0,009790323
171323,3;0,00980352
171340,2;0,009797654
171356,4;0,009740469
171373;0,009727273
171389,6;0,009727273
171406,1;0,009737537
171423,2;0,009730205
171439,3;0,009693548
171455,8;0,009693548
171472,4;0,009696481
171489,6;0,009703812
171506;0,009700879
171522,6;0,009700879
171538,7;0,009687684
171555,8;0,009631965
171571,8;0,009623167
171588,5;0,009612903
171605;0,009612903
171621,5;0,009589443
171638,1;0,009577713
171654,6;0,009595308
171671,7;0,00958651
171687,8;0,00958651
171704,8;0,009564516
171721,5;0,009585044
171737,5;0,009599707
171754;0,009612903
171770,9;0,009612903
171787,2;0,009599707
171803,7;0,009567449
171820,3;0,009583578
171836,9;0,00959824
171853,5;0,009565983
171870,4;0,009592376
171886,6;0,009596774
171903,2;0,009567449
171919,9;0,009567449
171936,7;0,009582112
171952,8;0,009583578
171969,4;0,00959824
171986,3;0,009582112
172002,5;0,009607038
172019,1;0,00959824
172036;0,009601173
172052,4;0,009589443
172070,2;0,009567449
172085,4;0,009545455
172102,6;0,009532258
172118,5;0,009533725
172135,1;0,009517595
172151,7;0,009504399
172168,4;0,009489737
172184,8;0,009501467
172201,7;0,009502932
172218;0,009535191
172235;0,009519062
172251,1;0,009519062
172267,6;0,009494135
172284,2;0,009508798
172300,8;0,009508798
172317,7;0,009507331
172334,9;0,009492668
172350,8;0,009472141
172367;0,009475074
172383,6;0,009492668
172400,1;0,009473607
172416,8;0,009482405
172433,3;0,009505865
172449,8;0,009511731
172466,7;0,009560117
172483;0,009589443
172499,5;0,009582112
172516,6;0,009585044
172532,7;0,009582112
172550,2;0,009589443
172566,3;0,009589443
172582,7;0,00959824
172599;0,009609971
172615,7;0,009617303
172632,1;0,009580646
172649;0,009579179
172665,3;0,009568915
172682;0,009557185
172698,3;0,009558652
172714,9;0,00958651
172731,9;0,00957478
172749;0,009587977
172764,6;0,00958651
172781,2;0,009593842
172797,8;0,009618768
172814,3;0,009640763
172831;0,009620234
172848;0,009639297
172864;0,009640763
172880,6;0,009612903
172897,1;0,009605572
172913,7;0,009589443
172930,3;0,009589443
172946,8;0,009561583
172963,4;0,009573314
172980;0,009573314
172996,5;0,009601173
173013,1;0,009604106
173029,7;0,009661291
173046,3;0,009648094
173062,8;0,009656891
173079,4;0,009741936
173096,3;0,009722874
173112,5;0,009708211
173129,1;0,009692082
173145,6;0,009705279
173162,7;0,009706745
173178,8;0,009697948
173195,9;0,009681818
173212,5;0,009681818
173228,5;0,009681818
173245;0,009683285
173261,8;0,009690616
173278,2;0,009690616
173295,1;0,009690616
173311,3;0,009692082
173327,9;0,009696481
173344,5;0,009708211
173361;0,009702346
173377,6;0,009696481
173394,2;0,009675954
173410,9;0,009652493
173427,4;0,009664223
173443,9;0,009696481
173460,4;0,009675954
173477;0,009705279
173493,6;0,009721408
173510,6;0,009719942
173527,2;0,009746335
173543,3;0,009743402
173559,9;0,009746335
173576,4;0,009746335
173593,1;0,009758065
173609,5;0,009758065
173626,5;0,009766863
173642,6;0,009753666
173659,3;0,009782991
173675,9;0,009782991
173692,4;0,009785924
173708,9;0,009772727
173725,6;0,009741936
173742;0,0097478
173758,6;0,009780059
173775,2;0,009780059
173792,7;0,009785924
173808,3;0,009785924
173825;0,009777126
173841,6;0,009821114
173858;0,009834311
173874,6;0,009832845
173891,3;0,009831378
173908,1;0,00985044
173924,3;0,009832845
173940,8;0,009832845
173957,4;0,00981525
173974;0,009791789
173990,6;0,009825514
174007,6;0,009828446
174023,7;0,009831378
174040,3;0,009844575
174056,8;0,009873901
174073,4;0,009870968
174090;0,009870968
174107,2;0,009895895
174123,1;0,009909091
174139,7;0,009909091
174156,3;0,009945748
174173,3;0,009972141
174189,8;0,009951613
174206,3;0,009960411
174222,5;0,009938416
174239,1;0,009938416
174256;0,009938416
174272,2;0,00996481
174288,8;0,009944282
174305,5;0,009951613
174321,9;0,009942816
174338,4;0,009922287
174355;0,009906159
174371,6;0,009906159
174388,4;0,009875366
174404,7;0,009887096
174421,3;0,009885631
174437,9;0,009854839
174455;0,009847508
174471,3;0,009840176
174487,5;0,009848974
174504,7;0,009856305
174521;0,009868035
174537,7;0,009865102
174553,8;0,00985044
174570,4;0,00983871
174586,9;0,009857771
174603,7;0,009859238
174620,1;0,009869502
174637,2;0,009869502
174653,4;0,009887096
174669,9;0,009898827
174686,7;0,009931085
174702,9;0,009934017
174719,5;0,009923753
174736,8;0,009931085
174752,6;0,009939883
174769,2;0,00992522
174785,8;0,009926686
174802,3;0,009932552
174819,2;0,009932552
174835,5;0,009954546
174852,2;0,00995308
174868,6;0,00995308
174885,3;0,009956012
174905,4;0,009957478
174918,3;0,009970674
174935,1;0,01001026
174951,4;0,0100088
174968;0,009994135
174984,6;0,01000293
175001,5;0,009998534
175017,7;0,009997068
175034,4;0,009995601
175050,8;0,009995601
175067,6;0,0100088
175084,1;0,00993695
175101,1;0,00993695
175117,7;0,009947214
175133,7;0,009951613
175150,2;0,009928153
175166,8;0,009941349
175183,3;0,009950147
175199,9;0,009978006
175217;0,00993695
175233;0,009939883
175249,6;0,009939883
175266,6;0,009945748
175282,8;0,009931085
175299,6;0,009941349
175316,1;0,009914956
175332,5;0,009914956
175349,7;0,009887096
175365,7;0,009887096
175382,1;0,009894428
175399,3;0,009897361
175415,9;0,009885631
175431,8;0,009890029
175448,9;0,009882698
175465,2;0,009882698
175482,5;0,009868035
175498,1;0,009868035
175514,8;0,009885631
175531,5;0,009885631
175548,5;0,009870968
175565,1;0,009846041
175581;0,009841642
175597,5;0,00983871
175614,1;0,009829912
175630,7;0,009835777
175647,2;0,009840176
175663,8;0,009812317
175680,3;0,009862171
175697,2;0,009862171
175713,7;0,009843108
175730,3;0,009868035
175746,7;0,009818182
175763,5;0,009800587
175779,7;0,009800587
175796,5;0,009784457
175812,9;0,00978739
175829,5;0,009774194
175846;0,009774194
175862,6;0,009771261
175879,3;0,009788857
175895,7;0,009793255
175912,5;0,009777126
175928,8;0,009777126
175945,7;0,009778593
175962,1;0,009781525
175978,9;0,009766863
175995,8;0,009778593
176012,2;0,009756599
176028,5;0,009753666
176044,9;0,009734605
176061,5;0,009753666
176077,9;0,009753666
176094,5;0,009784457
176111,5;0,009788857
176128,2;0,009804985
176144,2;0,009804985
176161,4;0,009806451
176177,5;0,00980352
176193,9;0,00978739
176210,6;0,009818182
176227,8;0,009809384
176243,6;0,009816715
176260,6;0,009819648
176276,8;0,009824047
176293,7;0,009818182
176309,9;0,009793255
176326,6;0,009809384
176343;0,009824047
176359,6;0,009825514
176376,1;0,009828446
176392,9;0,009829912
176409,3;0,009854839
176425,8;0,009846041
176442,6;0,009865102
176459,5;0,009862171
176475,7;0,009829912
176492,3;0,00980352
176508,7;0,009800587
176525,6;0,009802053
176542;0,009810851
176558,4;0,009840176
176575,5;0,009681818
176575,5;0,009634897
176595,5;0,009624634
176611,6;0,009634897
176628,2;0,009631965
176644,7;0,009623167
176661,3;0,0096261
176678;0,009642228
176694,5;0,009633431
176711;0,009612903
176727,5;0,00960264
176744,1;0,00960264
176760,9;0,009593842
176777,2;0,009554252
176793,9;0,009558652
176810,7;0,009564516
176826,9;0,009564516
176844,3;0,009545455
176860,3;0,009536657
176876,6;0,009538123
176893,2;0,009546921
176909,8;0,009539589
176926,3;0,009519062
176942,9;0,009535191
176959,5;0,009546921
176976;0,009546921
176992,7;0,009526393
177009,2;0,009501467
177025,7;0,009467742
177042,6;0,009463343
177059;0,00946481
177075,5;0,009461877
177092;0,009511731
177108,6;0,009501467
177125,1;0,009535191
177141,7;0,009535191
177158,3;0,009570382
177174,8;0,009601173
177191,4;0,009583578
177208;0,009549853
177224,5;0,009549853
177241,1;0,009560117
177257,7;0,009524927
177274,2;0,00956305
177290,8;0,009560117
177307,4;0,00956305
177323,9;0,00956305
177340,5;0,009570382
177357,1;0,00955132
177373,6;0,009526393
177390,2;0,009498534
177406,8;0,009485337
177423,8;0,009460411
177439,9;0,009445748
177456,5;0,009442816
177474;0,009442816
177489,6;0,00944868
177506,2;0,009456011
177523;0,009450147
177539,6;0,009457478
177555,9;0,009457478
177572,4;0,009475074
177589,7;0,009475074
177605,6;0,00947654
177622,2;0,00944868
177638,7;0,00945308
177655,5;0,009376833
177671,8;0,009378299
177688,4;0,009378299
177705;0,009369502
177722,1;0,00935044
177738,7;0,009337244
177754,7;0,009343108
177771,2;0,009341642
177787,8;0,009310851
177804,6;0,009284457
177820,9;0,00929912
177837,5;0,00929912
177854,6;0,009335777
177870,6;0,009340176
177887,2;0,009344575
177903,8;0,009359238
177920,3;0,009347508
177936,9;0,009296188
177953,5;0,00931525
177970;0,009319648
177986,7;0,00930352
178003,8;0,009285924
178020;0,009293255
178036,3;0,009266863
178052,9;0,0092522
178069,5;0,009244869
178086;0,009234604
178102,7;0,00926393
178119,5;0,009255132
178135,7;0,009243402
178152,3;0,009240469
178169,6;0,009258064
178186,2;0,009243402
178202;0,009243402
178218,8;0,009253666
178235,1;0,009259531
178252,1;0,009260997
178268,2;0,009268329
178285,7;0,009208212
178301,7;0,009190616
178318,2;0,009178886
178335;0,009159824
178351,1;0,009143695
178368,2;0,009151027
178385,1;0,009184751
178401,1;0,009142228
178417,3;0,009145161
178433,9;0,009152493
178450,5;0,009140763
178467;0,009115836
178483,8;0,009129032
178500,3;0,0091261
178516,8;0,00911437
178533,5;0,00913783
178549,9;0,009117302
178566,4;0,009117302
178583,6;0,00911437
178599,6;0,009123167
178616,3;0,009127566
178632,8;0,009142228
178649,3;0,009136364
178666,2;0,009151027
178682,4;0,009145161
178699;0,009145161
178715,5;0,009131965
178732,1;0,009152493
178748,9;0,009156892
178765,3;0,009170088
178782,6;0,009167155
178798,5;0,009127566
178815,2;0,009140763
178831,5;0,009153959
178848,1;0,00914956
178864,6;0,009155425
178881,2;0,009156891
178897,8;0,009156891
178914,4;0,009131965
178931,4;0,009129032
178947,5;0,009118768
178964;0,009133431
178980,6;0,009148094
178997,4;0,009171555
179014;0,009152493
179030,4;0,009174487
179047,5;0,00920088
179063,8;0,009206745
179080;0,009192082
179096,6;0,009184751
179113,1;0,009177419
179129,7;0,009171555
179146,3;0,009171555
179162,9;0,009111437
179179,6;0,009109971
179196;0,00911437
179212,5;0,00911437
179229,1;0,009115836
179245,7;0,009129032
179262,6;0,009139297
179278,8;0,009131965
179295,5;0,009131965
179312;0,009139297
179328,5;0,009143695
179345,1;0,009131965
179362,1;0,009131965
179378,2;0,00913783
179394,8;0,009117302
179411,9;0,009120234
179428;0,009117302
179444,5;0,009117302
179461;0,009139297
179478,1;0,009158358
179494,2;0,009158358
179510,7;0,009148094
179527,3;0,009148094
179543,9;0,009146628
179561,1;0,0091261
179577,4;0,00914956
179593,8;0,009151027
179610,1;0,009159824
179626,7;0,009183285
179643,4;0,009196481
179659,8;0,009196481
179676,8;0,009183285
179693;0,009202346
179709,9;0,009205279
179726,1;0,009208212
179743,1;0,009219942
179759,2;0,00922434
179775,8;0,009246334
179792,4;0,009269794
179808,9;0,009288857
179825,7;0,009280059
179842,1;0,009280059
179859,5;0,009262463
179875,2;0,009209678
179891,8;0,009211143
179908,8;0,009206745
179924,9;0,009239003
179941,5;0,00922434
179958,4;0,009260997
179974,6;0,009262463
179991,2;0,009280059
180007,7;0,00928739
180024,3;0,009278593
180041,1;0,009307918
180057,4;0,009304985
180074;0,009280059
180090,8;0,009278593
180107,1;0,009278593
180123,7;0,00927566
180140,3;0,009278593
180157;0,009278593
180173,4;0,009280059
180190;0,009290323
180206,5;0,009278593
180223,2;0,009253666
180240;0,009271261
180256,5;0,009271261
180272,8;0,00927566
180289,4;0,009278593
180305,9;0,009300587
180322,5;0,009297654
180339,1;0,009296188
180355,8;0,009334311
180372,2;0,009313783
180388,8;0,00930352
180405,3;0,00930352
180422;0,009353372
180438,5;0,009353372
180455;0,009366569
180471,6;0,009394429
180488,3;0,009394429
180504,7;0,009391496
180521,3;0,009378299
180538,5;0,009360704
180554,4;0,009354839
180571;0,00932698
180587,6;0,00933871
180604,2;0,009346041
180620,7;0,009332845
180637,3;0,009332845
180653,9;0,009293255
180670,4;0,009280059
180687;0,009265396
180703,5;0,00927566
180720,5;0,009268329
180736,7;0,009285924
180753,2;0,00928739
180769,8;0,009291789
180786,5;0,009294721
180802,9;0,009297654
180819,5;0,009297654
180836,1;0,00932698
180852,6;0,009337244
180869,2;0,009341642
180885,8;0,00935044
180902,9;0,009353372
180919;0,009343108
180935,7;0,009357772
180952;0,009344575
180968,6;0,009332845
180985,2;0,009337244
181001,7;0,009309384
181018,3;0,009291789
181035,2;0,009294721
181051,4;0,009297654
181068,7;0,009307918
181084,9;0,00931525
181101,1;0,00930352
181117,9;0,009296188
181134,3;0,009304985
181150,8;0,009307918
181167,7;0,009297654
181184;0,009306451
181200,5;0,009307918
181217,1;0,009307918
181233,7;0,009288857
181253,7;0,009300587
181267,1;0,009307918
181283,4;0,009302053
181299,9;0,009300587
181316,5;0,009272727
181333,1;0,009288857
181349,6;0,009282991
181366,2;0,009282991
181382,8;0,009272727
181399,3;0,009282991
181415,9;0,009249267
181432,5;0,0092478
181449;0,0092478
181465,6;0,009285924
181482,7;0,009601173
181498,9;0,009609971
181515,3;0,009611437
181532,6;0,009604106
181548,8;0,009618768
181565;0,009634897
181581,6;0,009819648
181598,1;0,009840176
181614,7;0,009907625
181631,3;0,00997654
181648;0,00997654
181664,6;0,01001466
181681;0,01027273
181697,5;0,01027273
181714,1;0,01032258
181730,7;0,0105132
181747,2;0,01069502
181763,8;0,01075953
181780,5;0,01113636
181797;0,01207331
181813,5;0,01219208
181830,2;0,01241349
181846,6;0,01241349
181863,2;0,01313636
181879,8;0,01357771
181896,5;0,01368768
181912,9;0,01396628
181929,5;0,01401173
181946,8;0,0145
181963,5;0,01502199
181979,2;0,01528592
181995,9;0,0155044
182012,7;0,01582551
182029,4;0,01670088
182045,4;0,01714516
182062;0,01714516
182078,6;0,01737977
182095,1;0,01739589
182112;0,01754839
182128,3;0,01837976
182144,8;0,01890469
182162,1;0,01906598
182178;0,01906598
182194,5;0,01933138
182211,1;0,01972581
182227,7;0,0197698
182244,2;0,01989443
182261,2;0,0199912
182277,8;0,02057918
182294,2;0,0207302
182310,5;0,02107331
182327,4;0,02120528
182343,6;0,0213827
182360,2;0,0213827
182376,8;0,02197801
182393,3;0,02206305
182409,9;0,02246334
182426,8;0,02246334
182443;0,02289003
182459,6;0,02306452
182476,2;0,0236085
182492,7;0,02371554
182509,4;0,02377566
182525,9;0,02380059
182542,7;0,02383871
182559;0,02414516
182575,6;0,02432845
182592,1;0,02442962
182608,8;0,02453226
182625,3;0,02487243
182641,8;0,02498974
182658,4;0,02551466
182675;0,02572141
182691,7;0,02570821
182708,2;0,02570821
182724,7;0,02570675
182741,2;0,02570675
182758;0,02632258
182774,4;0,0263827
182790,9;0,02644135
182807,5;0,02672434
182824,1;0,02708798
182840,6;0,02715396
182857,2;0,02717302
182873,9;0,02718475
182890,3;0,02720821
182907,4;0,02722874
182923,5;0,02731085
182940;0,02734458
182956,6;0,02758798
182973,3;0,02771848
182989,7;0,02771554
183006,3;0,02772434
183022,9;0,02782991
183039,4;0,0279824
183056;0,0281129
183072,6;0,02811144
183089,1;0,0281261
183105,7;0,02834458
183122,4;0,02866129
183138,8;0,02869648
183155,4;0,02868035
183172,2;0,02864809
183188,7;0,02862463
183205,1;0,0286261
183221,7;0,02874194
183238,2;0,02870968
183255,5;0,02867155
183271,4;0,02865249
183287,9;0,02871848
183304,5;0,02873167
183321,1;0,02869062
183337,9;0,02866276
183354,3;0,02861437
183370,8;0,02866129
183387,5;0,02862903
183403,9;0,02856891
183420,8;0,02857038
183437,3;0,02847801
183453,6;0,02844868
183470,2;0,02822287
183486,7;0,02819355
183503,3;0,02814809
183519,9;0,02814809
183536,4;0,02817155
183553,1;0,02817155
183569,6;0,02817155
183586,5;0,02805425
183602,9;0,02795454
183619,3;0,02786657
183635,8;0,02778739
183652,8;0,02768035
183669;0,02754692
183685,5;0,02744868
183702,1;0,02748534
183718,7;0,02748534
183735,2;0,02729032
183751,8;0,02714076
183768,7;0,02639736
183785;0,02586364
183801,5;0,02570381
183818,5;0,02552493
183834,7;0,02534604
183851,2;0,02495455
183867,8;0,02465396
183884,3;0,02415836
183900,9;0,02390176
183917,5;0,02376833
183934,7;0,02351613
183950,6;0,02351613
183973,4;0,02259238
183983,8;0,02254252
184000,4;0,02241935
184016,9;0,02241789
184033,4;0,02190323
184050,8;0,02056452
184066,6;0,02018768
184083,1;0,01987243
184100;0,01968915
184116,6;0,01921994
184132,8;0,01910411
184149,4;0,01890176
184166;0,0186085
184183;0,01827566
184199,1;0,01815689
184215,7;0,01799267
184232,3;0,01796334
184249;0,01796334
184265,4;0,01724047
184281,9;0,01703519
184298,5;0,0166217
184315,2;0,01658358
184331,6;0,01635191
184348,5;0,01609237
184364,8;0,0158871
184381,6;0,01569795
184397,9;0,01541789
184415,1;0,01484311
184431;0,01473314
184447,6;0,01464809
184464,2;0,01437537
184480,9;0,01437537
184497,3;0,0137434
184514,3;0,013739
184530,4;0,0136217
184547,8;0,01340762
184563,6;0,01322434
184580,2;0,01314223
184596,7;0,01314223
184613,3;0,0131261
184629,8;0,0131261
184646,4;0,01299267
184663;0,01281672
184679,5;0,01230498
184696,5;0,01209824
184712,9;0,01205719
184729,2;0,01165249
184746,4;0,01157918
184762,8;0,01157038
184779;0,01157038
184795,5;0,01141789
184812,1;0,01070528
184828,6;0,01069941
184845,2;0,01067302
184861,8;0,01067009
184880,3;0,01056891
184895;0,01058651
184911,5;0,01054985
184928;0,01053226
184944,9;0,01053812
184961,2;0,01016862
184977,7;0,01019501
184994,3;0,01018622
185011;0,01018622
185027,4;0,009969208
185044,1;0,009904692
185060,6;0,009750733
185077,9;0,009760997
185093,8;0,009661291
185110,3;0,009381232
185126,9;0,009230206
185143,4;0,009230206
185160;0,009222874
185176,5;0,0092478
185193,1;0,0092522
185209,7;0,009347508
185226,8;0,009300587
185242,8;0,009306451
185259,4;0,009306451
185275,9;0,009300587
185292,5;0,009307918
185309,1;0,009337244
185325,6;0,009300587
185342,2;0,00944868
185358,8;0,009532258
185375,3;0,009627566
185392,4;0,009646628
185408,5;0,009646628
185425;0,009662757
185441,6;0,009731672
185458,2;0,009730205
185474,9;0,009768329
185491,3;0,00977566
185508;0,009859238
185524,4;0,009884165
185541;0,009844575
185557,6;0,009844575
185574,1;0,009892962
185591,4;0,009903226
185607,3;0,009912023
185623,8;0,009975074
185640,8;0,01003372
185657;0,01011144
185673,5;0,0101217
185690,2;0,0101349
185706,7;0,01014663
185723,2;0,0101437
185739,8;0,01015543
185756,4;0,01017302
185772,9;0,0102654
185790,7;0,01029326
185806,1;0,01036657
185822,6;0,01036657
185839,2;0,01048534
185856;0,01052199
185872,3;0,01052053
185888,9;0,01069648
185905,5;0,01069648
185922,8;0,01072727
185938,6;0,01072727
185955,2;0,01069648
185971,7;0,01085191
185988,9;0,01079326
186005,4;0,01091349
186021,4;0,01098094
186038;0,01109971
186054,6;0,01114076
186071,1;0,01117302
186087,7;0,01116716
186104,3;0,01115543
186120,8;0,01116422
186137,4;0,01120675
186154,1;0,01123167
186170,7;0,01123167
186187,1;0,01154252
186203,7;0,01159091
186220,2;0,01166276
186236,8;0,01163783
186253,5;0,01166422
186269,9;0,01166422
186286,7;0,0119824
186303,1;0,0120044
186320,1;0,01204839
186336,2;0,01208651
186352,8;0,01209531
186369,6;0,01210117
186386,9;0,01216276
186402,9;0,01217302
186419;0,01217302
186435,9;0,01222727
186452,5;0,01219941
186468,7;0,01221114
186485,3;0,01228299
186501,9;0,01233724
186518,4;0,01242669
186535,3;0,01247214
186551,6;0,01247214
186568,1;0,01247947
186584,7;0,01241056
186601,3;0,01242669
186617,8;0,01239296
186635,2;0,01234311
186651;0,01233871
186667,5;0,01237243
186684,3;0,01229472
186700,7;0,01222287
186717,2;0,01218035
186733,8;0,01217889
186750,4;0,01213343
186767;0,01212757
186783,5;0,01212757
186800,7;0,01225806
186816,6;0,01233284
186833,2;0,01234311
186850,4;0,01241202
186866,3;0,01237683
186882,9;0,01235631
186899,5;0,01235631
186916,1;0,01232111
186932,8;0,01230792
186949,2;0,01228006
186965,8;0,01219355
186982,3;0,01218622
186998,9;0,01214809
187015,4;0,01211144
187032;0,01208358
187048,6;0,01206745
187065,1;0,01204692
187082,6;0,01194282
187098,3;0,01190616
187115,1;0,01189736
187131,4;0,01186217
187148,5;0,01181525
187164,5;0,01179619
187181,1;0,01178592
187197,7;0,01179179
187214,4;0,01179179
187230,8;0,01166862
187247,4;0,01154106
187263,9;0,0115176
187280,5;0,01149853
187297,1;0,01145748
187313,6;0,01143255
187330,8;0,01135191
187346,8;0,01127273
187363,3;0,01127273
187379,9;0,01111437
187396,5;0,01107918
187413,2;0,01103372
187429,6;0,01096041
187446,7;0,01093548
187462,7;0,0108871
187479,3;0,0108871
187496,7;0,01073754
187513,2;0,01071554
187529,1;0,01071554
187545,6;0,01066129
187562,8;0,01052346
187578,9;0,01052053
187595,7;0,01047067
187612,1;0,01035924
187628,4;0,01019795
187645;0,01010117
187661,5;0,01007478
187678,1;0,01005132
187694,7;0,009986804
187711,2;0,009957478
187727,8;0,009898827
187744,4;0,009898827
187761,4;0,009728739
187777,5;0,009687684
187794,1;0,009675954
187810,6;0,009467742
187827,2;0,009467742
187843,8;0,009419355
187860,3;0,009410557
187876,9;0,009153959
187893,5;0,008995601
187910;0,008910557
187926,6;0,008825514
187943,4;0,008769794
187959,7;0,008717009
187976,3;0,008714076
187992,9;0,008684751
188009,4;0,008548387
188026;0,008478006
188042,6;0,008409091
188060;0,008325513
188075,7;0,008284458
188092,6;0,008284458
188108,8;0,008221407
188125,5;0,008083578
188142;0,00805132
188158,5;0,0078739
188175,1;0,007746334
188192;0,007662757
188208,2;0,007640763
188224,8;0,00751173
188241,4;0,007435484
188257,9;0,007351906
188274,6;0,00709824
188291,1;0,007054252
188307,8;0,007043988
188324,7;0,00693695
188340,8;0,006923754
188357,7;0,006860704
188374,2;0,006860704
188390,5;0,006759531
188407,2;0,006762464
188423,6;0,006705279
188440,2;0,006675953
188456,9;0,006659824
188473,3;0,006659824
188490,3;0,006668622
188506,4;0,006639296
188523,7;0,006583578
188539,6;0,006328446
188556,3;0,006304985
188572,7;0,00627566
188589,3;0,006165689
188605,8;0,00616129
188622,5;0,006155425
188639,1;0,006098241
188656,6;0,005938416
188672,1;0,005887097
188688,7;0,005879765
188705,2;0,005868035
188721,9;0,00586217
188738,4;0,005831379
188754,9;0,005769795
188771,5;0,005769795
188788,1;0,005733138
188804,7;0,005571848
188821,7;0,00551173
188838,3;0,005426686
188854,3;0,005426686
188870,9;0,005420821
188887,5;0,005420821
188904;0,005428153
188920,7;0,005416422
188937,2;0,00542522
188953,7;0,005409091
188970,3;0,00542522
188986,9;0,00542522
189003,6;0,005439883
189020;0,005444282
189036,6;0,005426686
189053,1;0,005429619
189069,7;0,00541349
189086,5;0,005438417
189102,8;0,005438417
189119,4;0,005447214
189136,2;0,005447214
189152,7;0,005434018
189169,1;0,005457478
189185,7;0,005453079
189202,3;0,005467742
189218,8;0,005507331
189235,4;0,005491202
189252;0,005491202
189268,5;0,005492669
189285,1;0,005489736
189301,6;0,005504399
189318,5;0,005507331
189334,8;0,005507331
189351,4;0,005521994
189367,9;0,0055
189384,5;0,005520528
189401,1;0,00552346
189417,6;0,005543988
189434,2;0,005564516
189450,8;0,005567449
189467,3;0,005568915
189483,9;0,005577713
189500,4;0,005582111
189517;0,005579179
189533,6;0,005573314
189550,1;0,005586511
189566,7;0,005611437
189583,3;0,005612903
189600,1;0,005617302
189616,4;0,005624633
189633,3;0,005624633
189649,5;0,005665689
189666,1;0,005671554
