69597,46;0,009038123
69614,03;0,009042522
69630,59;0,009039589
69647,16;0,009032258
69663,73;0,009023461
69680,3;0,009017595
69696,86;0,009020528
69713,42;0,008998534
69729,99;0,008985338
69753,02;0,008979472
69769,59;0,008966275
69786,16;0,008966275
69802,9;0,008979472
69819,34;0,008985338
69836,2;0,00897654
69852,42;0,00896481
69869,02;0,00897654
69885,55;0,008969208
69906,1;0,008969208
69922,67;0,008972141
69940,11;0,008980938
69956,05;0,008997068
69972,91;0,008980938
69990,59;0,008969208
70007,18;0,008975074
70023,74;0,008975074
70040,43;0,00895308
70065,36;0,008957478
70081,93;0,008960411
70098,5;0,008960411
70115,07;0,008919355
70132,38;0,008894429
70148,46;0,008900293
70164,84;0,008887097
70181,34;0,008887097
70197,9;0,008878299
70219,52;0,00890176
70236,08;0,008895895
70253,42;0,008895895
70269,32;0,008879766
70285,88;0,008870968
70302,79;0,008891496
70318,91;0,008891496
70336,38;0,008887097
70352,36;0,008887097
70376,99;0,008847508
70393,57;0,008868035
70410,14;0,008865103
70427,11;0,008865103
70443,48;0,008835778
70460,38;0,008803519
70476,4;0,008793255
70492,96;0,008790323
70509,53;0,008790323
70533,2;0,008768328
70549,77;0,008766863
70566,34;0,008771261
70583,08;0,008749267
70599,54;0,008749267
70616,62;0,008741936
70632,61;0,00874047
70649,17;0,00873607
70666,18;0,00873607
70689,6;0,008756598
70706,45;0,00873607
70722,77;0,008728739
70739,3;0,008728739
70755,95;0,008692082
70772,48;0,008693549
70789,05;0,008699413
70805,56;0,008695015
70823,8;0,008697947
70846,2;0,008702346
70863,2;0,008702346
70879,34;0,008684751
70895,91;0,008711143
70912,47;0,008711143
70929,05;0,008747801
70946,42;0,008747801
70962,16;0,008747801
70978,73;0,008747801
70995,3;0,008737537
71017,73;0,008737537
71034,3;0,00874047
71051,55;0,008756598
71067,49;0,008777127
71084,37;0,008759531
71100,56;0,0087522
71117,13;0,008744868
71133,7;0,008744868
71150,31;0,008750733
71172,27;0,008739003
71188,84;0,008749267
71205,41;0,008749267
71221,98;0,008749267
71238,8;0,00870088
71255,1;0,008709677
71271,67;0,008711143
71288,38;0,008692082
71304,81;0,008699413
71327,17;0,008696481
71343,74;0,008696481
71360,3;0,008696481
71376,95;0,008699413
71393,44;0,008699413
71410,38;0,008728739
71426,58;0,008739003
71443,14;0,008749267
71460,52;0,008749267
71483,55;0,008766863
71500,13;0,008774194
71516,7;0,008746334
71533,26;0,008755133
71549,82;0,008750733
71566,76;0,008743402
71582,95;0,00874047
71600,4;0,008749267
71600,4;0,008803519
71620,4;0,008816715
71636,97;0,008832845
71653,53;0,008843109
71670,5;0,008831378
71687,44;0,008840176
71703,4;0,008840176
71720,06;0,008846041
71736,49;0,008857772
71752,94;0,008825514
71774,05;0,008837244
71790,87;0,008838709
71807,48;0,00885044
71823,76;0,008847508
71840,55;0,008832845
71856,9;0,008832845
71873,46;0,008844575
71890,52;0,008869502
71906,73;0,008860704
71929,17;0,008863636
71946,47;0,008879766
71962,55;0,008868035
71978,9;0,008868035
71995,44;0,00886217
72012,27;0,008854839
72028,57;0,008848974
72045,13;0,008846041
72061,7;0,008846041
72085,23;0,008865103
72101,79;0,008863636
72118,84;0,008860704
72134,93;0,008866569
72151,5;0,008866569
72168,12;0,008912023
72184,63;0,008928153
72201,45;0,009115836
72217,84;0,009174487
72240,52;0,009221408
72257,1;0,00939736
72273,65;0,009608504
72290,49;0,009790323
72306,85;0,009790323
72324,2;0,01012463
72339,92;0,01070381
72357,26;0,01082698
72373,05;0,01116276
72394,88;0,01219648
72411,67;0,01240176
72428,3;0,01240176
72444,6;0,01242962
72461,41;0,01358211
72477,71;0,01406012
72494,29;0,0143695
72510,85;0,01495161
72527,68;0,01507185
72549,9;0,01508651
72566,56;0,0161261
72583,03;0,01626833
72599,96;0,01636804
72616,65;0,01639736
72633,06;0,01654545
72649,59;0,01664956
72665,86;0,01664956
72682,44;0,01674487
72704,41;0,01682405
72720,98;0,016761
72737,55;0,01718475
72754,33;0,01718475
72771,3;0,01733138
72787,27;0,01733138
72804,19;0,01741349
72820,38;0,01775806
72837,01;0,01784311
72859,47;0,0178915
72876,09;0,01820675
72893,02;0,01851906
72909,63;0,01858358
72925,74;0,01861584
72942,3;0,01861584
72958,87;0,01864956
72975,44;0,018761
72992,38;0,01880499
73016,76;0,01887537
73033,34;0,01893255
73049,89;0,0190132
73066,71;0,0190132
73083,02;0,01909677
73099,59;0,01915249
73116,89;0,01927273
73132,72;0,01927566
73154,88;0,01939883
73179,16;0,01936657
73195,73;0,01951173
73212,58;0,01951759
73229,46;0,01954839
73245,43;0,01954252
73261,98;0,01952933
73278,55;0,01953666
73295,9;0,01951759
73311,69;0,01953226
73334,14;0,01958358
73351,05;0,01962903
73367,98;0,01963343
73383,84;0,0196217
73400,41;0,0196217
73416,98;0,0196393
73434,13;0,01964809
73450,11;0,01966276
73466,67;0,01970674
73488,8;0,01969355
73506,05;0,01969355
73522,53;0,01967742
73538,51;0,01967302
73555,08;0,01965689
73571,64;0,01965689
73588,2;0,01967595
73605,36;0,01960997
73621,34;0,0196437
73643,01;0,01965689
73659,74;0,01967009
73676,15;0,01967009
73692,72;0,01967302
73709,97;0,01967155
73725,84;0,01968182
73742,41;0,01968622
73758,97;0,01968328
73775,6;0,01969062
73799,55;0,01968475
73816,52;0,01968768
73832,91;0,01966716
73849,91;0,01972434
73866,23;0,01970528
73882,38;0,01970381
73899,23;0,01972287
73915,8;0,01974047
73932,11;0,01971994
73955,4;0,01971994
73972,49;0,0197434
73990,45;0,01972581
74005,1;0,01975073
74021,66;0,0197522
74038,27;0,0197522
74054,8;0,0197522
74072,09;0,0197566
74088,45;0,01976686
74111,88;0,01978739
74128,46;0,01979032
74145,02;0,01979326
74161,59;0,01976686
74178,16;0,01981232
74194,73;0,01964076
74211,5;0,01954692
74227,86;0,01954692
74244,42;0,01940762
74268,36;0,01916716
74285,35;0,01906305
74301,49;0,0188871
74318,2;0,01831085
74334,63;0,01801173
74351,21;0,01782991
74367,76;0,01782991
74384,63;0,01714369
74400,89;0,01669062
74423,93;0,01632112
74440,5;0,01603519
74457,06;0,01534164
74473,63;0,01514223
74490,43;0,01445161
74506,76;0,01383724
74523,41;0,01367155
74540,41;0,01357478
74556,87;0,01357478
74579,6;0,01248974
74596,2;0,01242082
74612,74;0,01232405
74629,48;0,01227713
74646;0,01218182
74662,85;0,01213196
74679,01;0,01213196
74695,57;0,01201466
74712,48;0,01201466
74735,06;0,0118959
74752,38;0,01142375
74768,2;0,01141056
74784,77;0,01136217
74801,33;0,01131672
74817,89;0,01097214
74835,69;0,01093988
74852,26;0,01084751
74869,59;0,01084751
74892,23;0,01024047
74908,96;0,01026979
74925,43;0,01019941
74941,93;0,01019941
74958,5;0,01009238
74975,18;0,01007185
74991,68;0,009982405
75008,2;0,009975074
75024,77;0,009956012
75047,15;0,009840176
75064,24;0,009788857
75080,28;0,009746335
75096,85;0,009699414
75113,42;0,009640763
75129,98;0,009568915
75146,55;0,009479472
75163,12;0,009461877
75179,84;0,009407625
75201,8;0,009343109
75218,45;0,00930352
75234,95;0,009324047
75251,5;0,009310851
75268,62;0,009310851
75285,06;0,009313783
75301,2;0,009300587
75317,77;0,009300587
75334,34;0,009300587
75355,3;0,009272727
75371,88;0,0092522
75388,44;0,009239003
75405,36;0,009203812
75421,57;0,009195015
75438,15;0,009189149
75454,7;0,009202346
75471,27;0,009202346
75487,9;0,00921261
75510,88;0,00921261
75527,57;0,009217009
75544,09;0,009193549
75560,57;0,00920088
75577,14;0,009215543
75593,7;0,009215543
75610,27;0,00922434
75626,84;0,009225806
75643,43;0,009208212
75675,92;0,009170088
75692,5;0,009170088
75709,23;0,009168622
75726,64;0,009153959
75742,19;0,009156892
75759;0,009165689
75775,31;0,009181818
75791,88;0,009186218
75808,45;0,009175953
75830,88;0,009142229
75847,77;0,009118768
75864,39;0,009124634
75880,81;0,009124634
75897,6;0,009077713
75914,45;0,009076246
75930,28;0,009080646
75946,84;0,009064516
75963,4;0,009064516
75989,46;0,00906305
76006,03;0,009048387
76022,92;0,009026393
76039,17;0,009026393
76056,03;0,009021995
76072,3;0,008997068
76089,05;0,008970675
76105,43;0,008963344
76122;0,00897654
76145,17;0,00894135
76162,63;0,008907625
76178,3;0,00888563
76223,38;0,008882698
76239,95;0,008892962
76256,52;0,008904692
76273,08;0,008904692
76296,81;0,008928153
76313,37;0,008931085
76329,95;0,00893695
76346,52;0,008945748
76363,08;0,008942815
76379,96;0,008948681
76396,27;0,008934018
76412,77;0,008958944
76429,34;0,008958944
76462,41;0,008961877
76479,59;0,008957478
76495,77;0,008951613
76513,28;0,008970675
76529,04;0,008980938
76545,48;0,008980938
76562,31;0,008983871
76578,61;0,008982405
76601,64;0,008982405
76618,22;0,008972141
76634,8;0,008986804
76651,34;0,009011731
76667,91;0,008994135
76684,48;0,009027859
76701,04;0,009026393
76717,61;0,009020528
76734,45;0,009013196
76755,48;0,009013196
76772,05;0,009010264
76789,46;0,009027859
76805,3;0,009020528
76821,75;0,009013196
76838,39;0,00898827
76855,21;0,00895308
76871,45;0,008934017
76888,02;0,00891349
76911,17;0,00891349
76927,75;0,008906159
76944,43;0,008907625
76961,08;0,008904692
76977,48;0,008910557
76994,01;0,008919355
77010,58;0,008875366
77027,15;0,008868035
77043,71;0,008872434
77067,15;0,008859238
77084,61;0,008860704
77100,28;0,00885044
77116,97;0,008860704
77133,41;0,008857772
77150,06;0,00886217
77166,54;0,008847508
77183,83;0,008851906
77200,39;0,008868035
77224,2;0,0088739
77240,77;0,0088739
77257,34;0,00886217
77274,02;0,008846041
77290,91;0,008844575
77307,04;0,008865103
77323,61;0,008857772
77340,32;0,008828446
77356,74;0,008784458
77379,84;0,008794721
77396,41;0,008794721
77412,98;0,008793255
77430,47;0,008790323
77446,12;0,00874047
77462,69;0,008749267
77479,25;0,008760997
77495,81;0,008759531
77512,38;0,008774194
77535,55;0,008802053
77552,11;0,008821115
77568,84;0,008807918
77585,41;0,008807918
77601,81;0,008800587
77618,38;0,008794721
77635,35;0,008793255
77651,52;0,008819648
77668,08;0,008819648
77690,72;0,008853372
77707,28;0,008841642
77723,85;0,008851906
77740,73;0,008857772
77756,99;0,00885044
77773,66;0,008834311
77790,48;0,008851906
77806,69;0,008846041
77823,25;0,008846041
77845,62;0,008895895
77862,19;0,008898827
77878,75;0,008904692
77895,32;0,008907625
77911,89;0,008904692
77928,58;0,008919355
77945,02;0,008904692
77961,59;0,008914956
77978,43;0,008923754
78001,91;0,008932551
78018,55;0,009004399
78035,4;0,009002932
78051,62;0,008995601
78071,59;0,008998534
78089,05;0,008986804
78104,73;0,008992669
78121,57;0,00898827
78137,86;0,00898827
78161,48;0,009036657
78178,05;0,009055719
78194,63;0,009055719
78211,48;0,009045455
78227,95;0,009043989
78244,3;0,009039589
78260,89;0,009001466
78277,45;0,009002932
78294,02;0,008991202
78320,05;0,009016129
78336,63;0,009010264
78353,19;0,009010264
78369,77;0,009001466
78386,31;0,009013196
78402,9;0,008998534
78419,45;0,009004399
78436,02;0,008992669
78452,59;0,009021995
78474,64;0,009017595
78491,2;0,009010264
78507,77;0,009000001
78524,34;0,009000001
78541,01;0,008980938
78557,85;0,008957478
78574,99;0,008978006
78590,61;0,009010264
78607,17;0,009007332
78628,83;0,009002932
78645,41;0,008995601
78662,13;0,008980938
78678,55;0,009000001
78695,1;0,008978006
78711,67;0,008978006
78728,91;0,008960411
78744,8;0,008948681
78761,51;0,008948681
78785,65;0,008948681
78802,81;0,008948681
78819,28;0,00895308
78835,36;0,008960411
78851,92;0,008958944
78868,7;0,008997068
78885,05;0,009005865
78902,91;0,009000001
78919,48;0,009000001
78941,87;0,009000001
78958,44;0,00898827
78975,46;0,008982405
78992,31;0,008985338
79008,13;0,008986804
79024,7;0,009010264
79041,27;0,009017595
79057,88;0,009021995
79074,39;0,009023461
79098,09;0,009020528
79114,66;0,009020528
79131,94;0,009035191
79147,95;0,009030792
79164,38;0,009030792
79180,93;0,009030792
79197,5;0,009016129
79214,06;0,009054252
79231,04;0,009049853
79254,3;0,009048387
79270,86;0,009046921
79287,43;0,009042522
79303,99;0,009042522
79320,56;0,009057185
79337,13;0,009058652
79353,71;0,009092376
79370,27;0,009101173
79386,83;0,009101173
79410,53;0,009076246
79427,81;0,009064516
79443,7;0,009108504
79460,26;0,009121701
79476,8;0,009140763
79493,36;0,009145161
79510,25;0,009139297
79526,5;0,009112903
79543,06;0,009090909
79570,08;0,009073314
79586,66;0,009065983
79603,2;0,009070382
79619,77;0,009079179
79636,68;0,009083577
79653,13;0,009080646
79669,88;0,009080646
79686,03;0,009064516
79702,9;0,009076246
79732,48;0,009085044
79749,13;0,009079179
79765,63;0,009021995
79782,31;0,009011731
79798,78;0,009011731
79815,32;0,009020528
79831,88;0,009020528
79848,46;0,009002932
79865,17;0,008989736
79889,56;0,008983871
79906,4;0,008970675
79922,7;0,008985338
79939,45;0,009002932
79955,84;0,008979472
79972,98;0,008985338
79988,97;0,008985338
80006,22;0,008967742
80022,6;0,00895308
80046,07;0,008938417
80062,64;0,008958944
80079,21;0,008970675
80095,95;0,008972141
80112,34;0,008985338
80128,91;0,008995601
80145,48;0,008986804
80162,2;0,00897654
80178,6;0,008973607
80201,31;0,008970675
80217,89;0,008978006
80234,53;0,008970675
80251,02;0,009019062
80267,64;0,009045455
80284,14;0,009033725
80300,71;0,009033725
80318,11;0,009005865
80333,85;0,009014663
80355,77;0,009023461
80372,34;0,009027859
80389,24;0,009057185
80405,47;0,009033725
80422,04;0,009027859
80438,6;0,009023461
80455,17;0,009021995
80472,05;0,009021995
80488,3;0,009002932
80511,99;0,009016129
80528,56;0,009024926
80545,13;0,009016129
80565,55;0,009000001
80578,27;0,008969208
80594,83;0,008948681
80611,4;0,008934018
80627,96;0,008934018
80644,53;0,008907625
80668,18;0,008888563
80684,75;0,008890029
80701,7;0,008898827
80717,93;0,008917889
80734,45;0,008931085
80751,02;0,008931085
80767,71;0,008939883
80784,55;0,008934018
80801,4;0,008944281
80822,45;0,008945748
80839,03;0,008947214
80855,59;0,008978006
80872,16;0,008980938
80888,84;0,008972141
80905,3;0,008982405
80921,86;0,008970675
80938,43;0,008983871
80954,99;0,00898827
80977,82;0,008980938
80994,82;0,008992669
81010,96;0,009000001
81027,52;0,009000001
81044,09;0,008989736
81060,69;0,008973607
81077,23;0,008973607
81093,8;0,00896481
81110,38;0,008969208
81136,71;0,008966275
81153,27;0,008950147
81169,88;0,008948681
81186,41;0,008934018
81202,98;0,008931085
81225,01;0,008923754
81241,57;0,008922287
81258,15;0,008963344
81280,65;0,008960411
81297,22;0,008957478
81313,78;0,008957478
81330,34;0,008938417
81346,91;0,008922287
81364,01;0,008931085
81386,16;0,008907625
81397,73;0,008938417
81414,29;0,008945748
81437,48;0,008923754
81454,41;0,008916423
81470,63;0,008919355
81487,18;0,00890176
81503,78;0,008914956
81520,32;0,008910557
81536,88;0,008932551
81554,06;0,008934018
81570,03;0,00893695
81594,85;0,008950147
81611,42;0,00892522
81627,98;0,008922287
81644,63;0,008928153
81665,45;0,008891496
81682,91;0,008895895
81698,59;0,008895895
81715,4;0,008898827
81731,91;0,008898827
81754,95;0,008881232
81771,53;0,008857772
81788,09;0,008898827
81804,66;0,008928153
81821,55;0,00893695
81837,79;0,00893695
81854,46;0,008935484
81871,32;0,008923754
81887,49;0,00893695
81910,09;0,008922287
81926,71;0,008904692
82260,05;0,008978006
82276,94;0,008969208
82293,18;0,008967742
82309,9;0,008973607
82326,32;0,008973607
82342,88;0,008966275
82359,45;0,008972141
82376,02;0,00893695
82392,58;0,008948681
82409,15;0,008947214
82425,71;0,008950147
82442,28;0,008951613
82459,28;0,008935484
82475,7;0,008922287
82491,99;0,008920821
82514,25;0,008920821
82525,12;0,008920821
82541,68;0,008928153
82558,82;0,008909091
82574,81;0,008931085
82591,38;0,00891349
82608,02;0,008942815
82624,52;0,008948681
82641,13;0,008939883
82657,95;0,008939883
82674,22;0,008945748
82690,78;0,008938417
82707,74;0,00895308
82724,08;0,008919355
82740,7;0,008910557
82757,05;0,008922287
82773,61;0,008938417
82790,19;0,008958944
82807,25;0,00893695
82823,31;0,008939883
82839,88;0,00889736
82856,45;0,00889736
82873,13;0,008898827
82889,58;0,008898827
82906,15;0,008916423
82922,71;0,008914956
82939,39;0,008914956
82956,11;0,008919355
82972,41;0,008919355
82989,01;0,008934018
83005,61;0,008944281
83022,21;0,008956012
83038,87;0,008951613
83055,24;0,008970675
83071,88;0,008970675
83088,39;0,008938417
83104,95;0,008947214
83121,52;0,008947214
83138,19;0,008947214
83154,66;0,008932551
83171,21;0,008961877
83187,78;0,008954545
83204,88;0,008970675
83220,95;0,008972141
83237,84;0,008994135
83254,05;0,008994135
83270,63;0,008986804
83287,33;0,008978006
83304,17;0,00898827
83320,31;0,008980938
83336,88;0,009001466
83353,45;0,009000001
83370,02;0,008989736
83386,68;0,008995601
83403,74;0,008954545
83419,91;0,008985338
83436,28;0,009001466
83452,85;0,009010264
83469,41;0,009041056
83485,98;0,009052786
83502,62;0,009042522
83519,21;0,009042522
83535,84;0,009073314
83552,25;0,009079179
83568,82;0,009068915
83585,52;0,009061583
83601,95;0,009061583
83618,95;0,009068915
83635,08;0,009068915
83651,65;0,00906305
83668,3;0,009076246
83685,27;0,009068915
83701,34;0,009065983
83718,27;0,009065983
83734,48;0,009058652
83751,06;0,009039589
83767,62;0,009038123
83784,18;0,009014663
83801,59;0,008992669
83817,31;0,008986804
83833,91;0,00898827
83851,06;0,008982405
83867,02;0,009000001
83883,59;0,008979472
83900,17;0,008978006
83916,78;0,008972141
83933,29;0,008983871
83950,36;0,008973607
83966,42;0,008967742
83983,01;0,008938417
83999,56;0,008938417
84016,13;0,008957478
84032,7;0,008991202
84049,26;0,008986804
84065,82;0,008975074
84082,39;0,008969208
84099,22;0,008969208
84115,66;0,009014663
84132,08;0,009010264
84148,81;0,009029326
84165,21;0,009036657
84182,63;0,009073314
84198,35;0,009065983
84214,91;0,009076246
84231,48;0,009065983
84248,05;0,009076246
84264,97;0,009089443
84281,18;0,009089443
84297,74;0,009093842
84314,31;0,009109971
84331,08;0,009096774
84348,36;0,009105572
84364,02;0,00913783
84380,59;0,009124634
84397,15;0,009089443
84413,73;0,009079179
84430,47;0,009079179
84446,84;0,009046921
84463,41;0,009039589
84480,05;0,009005865
84496,55;0,00897654
84513,27;0,008989736
84529,69;0,00896481
84546,25;0,008926687
84563,14;0,008004399
84563,14;0,00793695
84583,15;0,007872434
84599,71;0,007837243
84616,38;0,007818182
84633,24;0,00777566
84649,41;0,007736071
84665,99;0,007736071
84683,11;0,007668622
84699,59;0,007667155
84716,12;0,007630499
84732,25;0,007577713
84748,81;0,007533724
84765,6;0,007494135
84781,95;0,007445748
84798,51;0,007417889
84815,09;0,007382698
84831,64;0,007354839
84848,38;0,007304986
84864,77;0,007304986
84881,69;0,007227273
84898,31;0,007217009
84914,48;0,007178886
84931,05;0,007133431
84947,88;0,007117302
84964,17;0,007129032
84980,74;0,007054252
84997,32;0,00701173
85014,05;0,006980938
85030,44;0,006935484
85047,02;0,006900293
85063,58;0,006841642
85080,15;0,006841642
85096,71;0,00681525
85113,27;0,00681525
85130;0,006702346
85146,41;0,006631965
85163,05;0,006621701
85179,54;0,006573314
85196,12;0,00651173
85213,38;0,006485337
85229,25;0,006434018
85245,81;0,006382698
85262,38;0,006382698
85279,1;0,00633871
85295,51;0,006260997
85312,08;0,00621261
85328,77;0,006206745
85345,55;0,006206745
85361,78;0,006117302
85378,34;0,006111437
85395,43;0,006067449
85411,98;0,005991202
85428,04;0,005980939
85444,98;0,005938416
85461,59;0,005892962
85480,41;0,005878299
85494,88;0,00585044
85510,88;0,005840176
85527,95;0,005809384
85544,03;0,005711144
85560,58;0,005677419
85577,14;0,005662757
85593,71;0,005662757
85610,49;0,005612903
85626,86;0,005554252
85643,41;0,005530792
85659,98;0,005495601
85676,55;0,005454545
85693,11;0,005325513
85709,97;0,005306452
85726,24;0,005306452
85743,12;0,005281525
85759,38;0,005243402
85776,13;0,005127566
85792,51;0,005054252
85809,38;0,005036657
85825,84;0,00501173
85842,23;0,004960411
85858,78;0,004939883
85875,45;0,004939883
85891,91;0,00483871
85908,48;0,00478739
85925,04;0,004765396
85941,61;0,004753666
85958,17;0,004727273
85974,88;0,004702346
85991,31;0,004674487
86008,4;0,004659824
86024,45;0,004646628
86041,06;0,004618769
86057,58;0,004609971
86074,96;0,004579179
86090,73;0,004576246
86107,27;0,004570381
86123,84;0,004585044
86140,41;0,004561584
86156,98;0,004561584
86173,97;0,004589443
86190,11;0,00459824
86206,68;0,004617302
86223,31;0,004633431
86240,02;0,004667155
86256,38;0,004683285
86272,95;0,004718475
86289,52;0,004746334
86306,27;0,004934018
86322,93;0,004982405
86339,3;0,005092375
86355,78;0,005089443
86372,35;0,005140762
86388,91;0,005140762
86405,95;0,00521261
86422,46;0,006089443
86438,62;0,006636364
86455,58;0,006734604
86471,81;0,006756598
86488,32;0,006697947
86505,13;0,006857771
86521,45;0,007117302
86538,45;0,007186217
86554,59;0,007266862
86571,85;0,007372434
86588,45;0,007444282
86604,29;0,007513197
86620,86;0,007568915
86637,42;0,007568915
86654,01;0,007865103
86670,55;0,007938417
86687,13;0,007960411
86703,97;0,008168622
86720,24;0,008346041
86737,06;0,00838563
86753,38;0,008384164
86770,09;0,00847654
86786,51;0,008612903
86803,15;0,008627567
86819,72;0,008636364
86836,21;0,008636364
86852,77;0,008693549
86870,16;0,008721408
86886,64;0,008721408
86902,48;0,008950147
86919,05;0,00897654
86935,61;0,008960411
86952,66;0,008994135
86968,74;0,00898827
86985,44;0,009046921
87002,23;0,009046921
87018,74;0,009171554
87035,4;0,009189149
87051,58;0,009272727
87068,15;0,009307918
87084,71;0,009307918
87101,28;0,009409091
87117,84;0,009409091
87134,41;0,009401759
87151,64;0,009419355
87167,88;0,009460411
87184,5;0,009545455
87201,55;0,009549853
87217,25;0,009549853
87233,81;0,009568915
87250,38;0,009592376
87266,95;0,009599707
87283,51;0,009762463
87300,13;0,009774193
87316,64;0,009774193
87333,21;0,009822581
87349,77;0,009907625
87366,74;0,009898827
87383,16;0,009950147
87399,48;0,009978006
87416,36;0,01003519
87432,61;0,01003812
87449,19;0,01003079
87466,09;0,01014223
87482,3;0,01016569
87499,46;0,01022141
87516,05;0,01022141
87533,48;0,01021408
87550,08;0,01037537
87566,85;0,01057625
87583,67;0,0106305
87599,76;0,01065103
87616,38;0,01069502
87632,89;0,01069502
87649,58;0,01070821
87666,5;0,01073754
87682,59;0,01074047
87699,15;0,0107522
87715,72;0,0108739
87732,28;0,01089589
87748,86;0,01090176
87765,83;0,01090323
87781,99;0,01091789
87799,34;0,01096774
87815,13;0,01101173
87831,69;0,01103959
87848,42;0,01105132
87864,88;0,01105865
87881,38;0,01106305
87897,97;0,01108651
87914,52;0,0111261
87931,26;0,0111261
87947,66;0,01120528
87964,83;0,01127859
87980,79;0,01130059
87997,54;0,01132111
88014,76;0,01135191
88030,48;0,01132698
88047,36;0,01134458
88063,63;0,0113871
88080,27;0,0113871
88096,76;0,01144868
88113,74;0,01146481
88130,1;0,01150587
88146,7;0,01151466
88163,48;0,01153079
88179,59;0,01153079
88196,15;0,01157918
88212,73;0,01162317
88229,63;0,01162317
88245,86;0,01162757
88262,42;0,01161584
88279;0,01163343
88295,55;0,01163343
88312,12;0,01163343
88328,69;0,01154546
88345,25;0,01156305
88361,82;0,01156745
88378,59;0,01131672
88394,96;0,01053959
88411,52;0,01035484
88428,09;0,01026686
88445,22;0,01022727
88461,59;0,01022727
88477,79;0,01025806
88494,35;0,01017742
88510,98;0,01003666
88527,48;0,01009091
88544,46;0,009920822
88560,63;0,009862171
88577,19;0,009780059
88593,75;0,009740469
88610,38;0,00980352
88626,88;0,009719942
88643,45;0,009514662
88660,66;0,009475074
88676,59;0,009520528
88693,16;0,00963783
88709,82;0,009376833
88726,29;0,009376833
88742,85;0,00921261
88759,53;0,00920088
88775,98;0,009082112
88792,59;0,009023461
88809,24;0,009039589
88825,7;0,009073314
88842,26;0,009054252
88858,82;0,009013196
88876,27;0,009007332
88892,4;0,008834311
88908,58;0,008834311
88925,87;0,008834311
88941,65;0,008821115
88958,3;0,008821115
88974,78;0,008917889
88991,36;0,008906159
89007,92;0,008800587
89024,73;0,008797654
89041,05;0,008790323
89057,62;0,008796188
89074,19;0,008815249
89090,82;0,008790323
89107,55;0,008844575
89124,84;0,008895895
89140,46;0,008892962
89157,33;0,008892962
89173,59;0,008904692
89190,16;0,008894429
89206,72;0,008894429
89223,3;0,008892962
89239,85;0,008892962
89256,41;0,008917889
89273,31;0,00885044
89289,55;0,008782991
89306,16;0,008772727
89322,75;0,008746334
89339,26;0,008721408
89355,86;0,008721408
89372,39;0,008662757
89389,08;0,008667155
89405,71;0,008658358
89422,09;0,008601173
89438,66;0,008697947
89455,23;0,008655425
89471,82;0,008655425
89488,53;0,008538123
89504,95;0,008538123
89521,5;0,00853519
89538,12;0,008492669
89554,62;0,008454545
89571,51;0,008356305
89588,28;0,008356305
89604,33;0,008344575
89621,41;0,008193549
89637,45;0,008165689
89654,02;0,008277127
89670,59;0,008259531
89687,23;0,00823607
89704,04;0,008187683
89720,41;0,00828739
89736,85;0,008354839
89753,42;0,008375366
89770,02;0,008375366
89786,55;0,008348973
89803,13;0,008435484
89819,69;0,008435484
89836,31;0,008422287
89853,13;0,008432551
89870,07;0,008536657
89886,41;0,008595308
89902,52;0,008714076
89919,09;0,008678886
89935,66;0,008695015
89952,84;0,00871261
89968,79;0,008645161
89985,41;0,008627567
90001,92;0,008658358
90018,5;0,008655425
90035,34;0,0087522
90052,39;0,008753666
90068,19;0,008753666
90085,26;0,008695015
90101,32;0,008765396
90117,89;0,008774194
90134,99;0,008746334
90151,03;0,008746334
90167,59;0,008785924
90184,16;0,008904692
90200,72;0,008920821
90217,28;0,008920821
90233,88;0,008920821
90250,43;0,008832845
90267,24;0,009001466
90283,8;0,00911437
90300,12;0,009101173
90316,69;0,009064516
90333,25;0,008979472
90349,82;0,008822581
90366,38;0,008815249
90382,95;0,008912023
90400,02;0,00889736
90416,09;0,008966275
90433,51;0,008973607
90449,22;0,008906159
90465,79;0,008920821
90482,35;0,008934017
90498,91;0,00894868
90515,69;0,008934017
90532,05;0,008934017
90549,99;0,008960411
90565,19;0,008938417
90581,82;0,008967742
90598,32;0,008929619
90614,89;0,008929619
90631,55;0,008875366
90648,54;0,008907625
90664,71;0,008863636
90681,16;0,008740469
90697,73;0,008689149
90714,35;0,00886217
90730,96;0,008878299
90747,42;0,00891349
90763,98;0,008910557
90780,55;0,008910557
90797,12;0,008989736
90813,69;0,008985337
90830,25;0,008991202
90846,82;0,009058652
90863,39;0,009058652
90879,95;0,009058652
90896,52;0,009170088
90913,28;0,009158358
90929,66;0,009039589
90946,52;0,009041056
90963,08;0,009155425
90979,35;0,0092478
90995,92;0,009215543
91012,49;0,009208212
91029,05;0,009118768
91045,63;0,009117302
91062,19;0,009134897
91078,75;0,009123167
91095,34;0,009271261
91111,88;0,009272727
91128,45;0,009369502
91145,41;0,00941349
91161,59;0,009369502
91178,16;0,009369502
91194,72;0,009309384
91211,29;0,009368035
91227,85;0,009431086
91244,42;0,009551319
91260,98;0,009634897
91277,55;0,009629033
91294,44;0,009665689
91310,69;0,009677419
91327,26;0,009768329
91343,82;0,00994868
91360,55;0,009967742
91377,28;0,009967742
91393,56;0,01001906
91410,25;0,01007478
91427,02;0,01007918
91443,55;0,01008211
91460,7;0,0101173
91476,36;0,0101173
91492,92;0,01013636
91509,48;0,01013636
91526,05;0,01014223
91542,62;0,01022727
91559,19;0,01024047
91575,75;0,01027126
91592,78;0,01020235
91608,89;0,01019062
91625,45;0,01019941
91642,02;0,01022727
91659,07;0,01020968
91675,16;0,01023754
91692,3;0,01022727
91708,29;0,01022727
91724,85;0,01020675
91741,41;0,01025806
91757,98;0,01032845
91774,61;0,01036657
91791,35;0,01031965
91807,69;0,01022874
91825,03;0,01025806
91840,82;0,01032698
91857,41;0,01032405
91873,95;0,01028886
91890,52;0,01018182
91907,09;0,01021114
91923,66;0,01021994
91940,23;0,01017595
91956,79;0,01018915
91973,35;0,01026246
91989,92;0,01028886
92006,49;0,01035044
92023,3;0,01030645
92039,86;0,01029619
92056,2;0,01030352
92072,84;0,01024194
92089,85;0,01037683
92106,35;0,01040469
92122,47;0,01040469
92139,13;0,01039736
92156,18;0,01037243
92172,16;0,01037243
92188,73;0,01050293
92205,52;0,01044282
92221,85;0,01045601
92238,45;0,01044721
92255,41;0,01044721
92271,55;0,01036217
92288,31;0,01019941
92304,69;0,01018915
92321,25;0,01020088
92337,82;0,01020088
92354,61;0,01028152
92371,13;0,01031525
92387,52;0,01025073
92404,09;0,01021848
92420,66;0,01021701
92437,38;0,01032991
92453,88;0,01034604
92470,35;0,01044135
92486,92;0,01043108
92503,48;0,01050587
92520,05;0,01050587
92536,63;0,01041935
92553,38;0,01039589
92570,19;0,01039589
92590,58;0,01043842
92602,89;0,01047801
92619,59;0,01049414
92636,02;0,01048534
92652,78;0,01047947
92669,15;0,01057478
92685,72;0,01069795
92702,29;0,01068768
92718,86;0,01058944
92735,42;0,01062757
92752,13;0,01064809
92768,91;0,01064809
92785,12;0,01064663
92801,84;0,01070528
92818,25;0,01077713
92835,05;0,01080205
92851,72;0,01075367
92868,23;0,0107566
92884,52;0,01093108
92901,19;0,01115982
92917,66;0,01120235
92934,23;0,01121994
92950,79;0,01120675
92967,35;0,01118328
92983,98;0,01113196
93001;0,0111393
93017,05;0,0111393
93034,13;0,01138416
93050,19;0,01146481
93067,24;0,01153666
93083,32;0,01157038
93100,13;0,01150293
93116,45;0,01153372
93133,38;0,01147361
93149,65;0,01152639
93166,23;0,01162023
93182,73;0,01171408
93199,48;0,0117478
93215,85;0,01176979
93232,42;0,0117478
93248,98;0,0117478
93265,55;0,01175073
93282,12;0,01170675
93298,68;0,01182845
93315,26;0,0118651
93331,82;0,0118871
93348,39;0,0118695
93364,95;0,01189003
93381,52;0,01189003
93398,09;0,01190469
93414,65;0,01197801
93431,48;0,01197801
93447,83;0,01202346
93464,36;0,0121129
93481,56;0,01223167
93497,64;0,01237537
93514,3;0,01249267
93530,62;0,01263783
93547,19;0,01272287
93563,75;0,01285484
93580,32;0,01285484
93596,88;0,01306892
93618,07;0,01314223
93630,02;0,01334311
93646,67;0,01335924
93663,16;0,01345015
93679,72;0,01353519
93696,29;0,01353519
93713,24;0,0136393
93729,88;0,01367009
93746,23;0,01372874
93762,55;0,01373021
93779,57;0,01386364
93795,69;0,0140044
93812,26;0,01409238
93829,44;0,01407918
93846,2;0,01420235
93862,16;0,01439003
93879,32;0,01464663
93895,56;0,01464516
93911,65;0,01457478
93928,48;0,0146349
93944,79;0,01471847
93961,38;0,01471847
93978,03;0,01489736
93994,48;0,01493109
94011,05;0,01493109
94027,62;0,01507478
94044,91;0,01507478
94060,75;0,01508358
94077,31;0,01508358
94093,89;0,01551613
94110,46;0,01553519
94127,02;0,01578153
94143,73;0,01570381
94160,16;0,01571847
94177,66;0,01562463
94193,29;0,01566422
94209,85;0,01574047
94226,41;0,01587683
94242,99;0,0158739
94259,57;0,01593402
94276,13;0,01601906
94292,69;0,01601026
94309,25;0,01603519
94325,98;0,0162434
94342,38;0,01636364
94359,73;0,01632991
94375,73;0,01631672
94392,09;0,01631672
94409,23;0,01645455
94425,23;0,01645894
94441,87;0,01644575
94458,63;0,0164956
94474,92;0,0166437
94491,51;0,01672434
94508,09;0,01675367
94524,62;0,01674194
94541,41;0,01675073
94558,09;0,01675367
94574,32;0,01675806
94590,89;0,01674047
94607,45;0,016761
94624,66;0,01672434
94640,64;0,01674633
94657,22;0,01671114
94673,73;0,01672287
94690,6;0,01672581
94707,28;0,01668182
94723,48;0,01665836
94740,49;0,0166261
94756,56;0,01658944
94773,16;0,01657331
94790,34;0,01657331
94806,31;0,01660997
94823,06;0,0166305
94839,39;0,01667889
94855,96;0,0166393
94872,54;0,01667302
94889,1;0,01671114
94905,72;0,0166393
94922,24;0,01666716
94939,14;0,01670381
94955,35;0,01672434
94972,07;0,01672434
94988,58;0,01703959
95005,29;0,01710557
95021,63;0,01707185
95038,19;0,01707918
95054,76;0,0171217
95071,73;0,01729032
95087,91;0,0173607
95104,45;0,01742082
95121,16;0,01754252
95137,72;0,0176085
95154,15;0,01767449
95170,93;0,01760557
95187,29;0,01766569
95204,35;0,01773607
95220,88;0,01782845
95236,98;0,01789736
95253,55;0,0178783
95270,43;0,01801613
95287,08;0,01810264
95303,25;0,01818768
95319,82;0,01818768
95336,39;0,01822727
95352,95;0,01822727
95369,52;0,01820528
95386,3;0,01822434
95402,66;0,01857331
95419,22;0,01880059
95435,78;0,01881818
95452,35;0,01893695
95468,97;0,01909384
95485,49;0,01907478
95502,09;0,01962317
95518,9;0,01984604
95535,19;0,02003226
95551,75;0,02012463
95568,32;0,02030792
95584,88;0,0202478
95601,45;0,0202478
95618,02;0,0202478
95634,59;0,0202478
95651,3;0,0202478
95667,72;0,02033138
95687,28;0,02015396
95700,87;0,02035191
95717,5;0,02060557
95734,15;0,02080352
95750,55;0,02074047
95767,31;0,02068915
95783,69;0,02055719
95800,46;0,02055719
95816,91;0,02057185
95833,39;0,02074927
95849,95;0,02073314
95866,52;0,02063197
95883,09;0,02063197
95900,07;0,02052933
95916,98;0,02065689
95932,78;0,02091202
95949,36;0,02097507
95966,06;0,02097507
95982,51;0,02092962
95999,15;0,02092962
96016,11;0,02107038
96032,19;0,02147068
96048,75;0,02120235
96065,32;0,02088563
96081,88;0,02088563
96098,46;0,02074927
96115,71;0,02053959
96131,59;0,02051613
96148,87;0,0204868
96165,12;0,02042522
96181,82;0,02039589
96197,88;0,02041056
96214,41;0,02029472
96230,98;0,02029472
96247,55;0,02036657
96264,29;0,02023021
96280,69;0,02025807
96297,26;0,02028153
96314,16;0,02028153
96330,45;0,02003812
96346,95;0,02001466
96363,81;0,01997947
96380,48;0,01992815
96396,88;0,01976686
96413,24;0,01975513
96429,8;0,01985484
96446,47;0,01992962
96462,95;0,019739
96480,09;0,01951466
96496,7;0,01947507
96512,63;0,01947507
96529,19;0,0194912
96545,75;0,01952053
96562,61;0,01964663
96578,89;0,0196261
96595,66;0,0196261
96612,68;0,01965103
96628,59;0,01965103
96645,15;0,01964956
96661,75;0,01971848
96678,29;0,01972727
96695,11;0,01972141
96711,42;0,01972141
96727,99;0,01969355
96744,55;0,01968475
96761,12;0,01968915
96777,79;0,01966716
96794,64;0,01965543
96810,82;0,01964076
96827,45;0,01965543
96843,95;0,01965543
96860,52;0,01965396
96877,09;0,01969648
96893,66;0,01958211
96910,22;0,01949413
96926,79;0,0195
96943,35;0,01970381
96959,92;0,01955132
96976,48;0,01951613
96993,05;0,01934164
97009,62;0,01932111
97026,19;0,01929032
97042,84;0,01916716
97059,32;0,01910264
97076,05;0,01893695
97092,45;0,01875953
97109,02;0,01867888
97125,59;0,01856745
97142,24;0,01840909
97158,72;0,01837683
97175,29;0,0183783
97191,86;0,0183783
97208,42;0,01834751
97225,08;0,01832698
97241,55;0,01832698
97258,13;0,01834458
97274,69;0,01834458
97291,56;0,01834604
97308,18;0,01840909
97324,41;0,01865396
97341,2;0,01865396
97357,53;0,01864076
97374,1;0,0188695
97390,66;0,01906598
97407,23;0,0189912
97423,8;0,0189912
97440,36;0,01878592
97456,93;0,01878592
97473,52;0,01888123
97490,32;0,01882991
97506,63;0,01821408
97523,2;0,01811144
97539,95;0,01811144
97556,32;0,01785924
97572,88;0,01794282
97589,5;0,01782845
97606,02;0,01781378
97622,59;0,01781378
97639,17;0,01815103
97655,84;0,01819795
97672,34;0,01820088
97694,34;0,01829032
97705,91;0,01831965
97721,98;0,01798974
97738,55;0,01793695
97755,19;0,01812757
97771,69;0,01852786
97788,25;0,01916569
97804,82;0,01921408
97821,45;0,01922141
97838,02;0,01922727
97854,52;0,01925367
97871,82;0,01934604
97887,74;0,01934604
97904,22;0,01935191
97920,78;0,01934897
97937,35;0,01923314
97954,77;0,01932991
97970,49;0,01932991
97987,05;0,01958358
98003,76;0,01927273
98020,19;0,01910997
98036,75;0,01917155
98054,09;0,01938416
98069,88;0,01964223
98086,66;0,01978739
98103,02;0,01988416
98119,59;0,02000587
98136,2;0,02007478
98152,97;0,02007478
98169,29;0,02026393
98185,86;0,02040762
98202,42;0,0204824
98218,98;0,0204956
98235,55;0,02051613
98252,12;0,02064956
98268,69;0,0207522
98285,3;0,0207522
98301,93;0,02072141
98318,86;0,02073754
98334,95;0,02073167
98351,52;0,02078886
98368,09;0,02093548
98385,42;0,02140176
98401,22;0,02154252
98417,79;0,02157625
98435,23;0,02150586
98450,92;0,02163343
98467,48;0,02172581
98484,05;0,02171994
98501,1;0,0219868
98517,19;0,0219868
98533,75;0,02214223
98550,32;0,02214223
98567,21;0,02218622
98583,63;0,02234751
98600,02;0,02254252
98616,59;0,02256305
98633,16;0,02270528
98649,72;0,02286217
98666,29;0,02291202
98683,01;0,02305865
98699,59;0,02305865
98715,98;0,02324047
98732,55;0,0233871
98749,2;0,02356452
98765,69;0,02363636
98782,26;0,02374927
98798,82;0,02393108
98815,41;0,02395308
98832,28;0,02420968
98848,52;0,02422287
98865,09;0,02425513
98881,66;0,02436217
98898,44;0,02444282
98914,79;0,02468622
98931,35;0,02468622
98947,94;0,02478299
98965,41;0,02515982
98981,05;0,02538416
98997,62;0,02558651
99014,19;0,02578006
99030,76;0,02601906
99047,32;0,02629472
99063,89;0,02664223
99080,45;0,02681378
99097,02;0,02716862
99113,86;0,02718768
99130,15;0,02735924
99146,72;0,02749707
99163,29;0,02758651
99179,85;0,0276393
99196,66;0,0276393
99212,99;0,02795748
99229,55;0,02826686
99246,12;0,0285044
99262,69;0,02859824
99279,53;0,02881818
99295,82;0,0291217
99312,38;0,02904106
99328,95;0,0290132
99345,52;0,02914956
99362,09;0,02919062
99378,66;0,02923167
99395,22;0,02923167
99412,06;0,02917595
99428,35;0,02951173
99444,92;0,02962317
99461,48;0,02964516
99478,05;0,02984164
99494,63;0,03045015
99511,19;0,03056012
99527,76;0,03068622
99544,55;0,0315044
99560,89;0,03212903
99577,45;0,03224927
99594,27;0,03242815
99610,59;0,03256892
99627,3;0,03260117
99643,72;0,03272581
99660,83;0,03268915
99676,86;0,03267009
99693,42;0,0328607
99710,59;0,03289296
99726,55;0,03289296
99743,12;0,03322727
99759,68;0,03332405
99776,25;0,03331232
99792,83;0,03272288
99809,39;0,03272288
99825,95;0,03263929
99842,66;0,03263929
99859,09;0,03271554
99875,66;0,03250293
99892,22;0,03253519
99908,78;0,03274193
99925,79;0,03296774
99941,93;0,03295601
99959,06;0,03296334
99975,51;0,03296627
99991,63;0,03305425
100008,2;0,03320821
100025,3;0,03347654
100042,2;0,03348534
100058,5;0,03357918
100074,5;0,03347214
100091;0,03327566
100107,6;0,03324633
100124,2;0,03324633
100140,7;0,03308064
100157,7;0,03312317
100174,8;0,03330059
100190,4;0,03332991
100207;0,0336041
100223,7;0,03412903
100240,1;0,0339868
100256,7;0,033978
100273,3;0,0340044
100289,8;0,0340176
100306,4;0,03403666
100323;0,03414663
100339,5;0,03440909
100356,1;0,03440909
100372,6;0,03408358
100389,2;0,03407625
100406,1;0,03403079
100422,4;0,03409237
100438,9;0,03409237
100455,5;0,03422141
100472,6;0,03422141
100489,2;0,03451613
100505,4;0,03431818
100521,8;0,03440323
100538,3;0,03453519
100555;0,03448387
100571,5;0,03442229
100588;0,03432551
100604,6;0,03429912
100621,2;0,03424927
100637,7;0,0342522
100654,4;0,03434018
100670,9;0,03434311
100687,9;0,03430205
100704;0,03408798
100720,6;0,03408358
100737,1;0,03406452
100753,7;0,03383284
100770,3;0,03378886
100787,2;0,03382111
100803,5;0,0337346
100820;0,03378446
100836,5;0,03356598
100853,1;0,03345601
100870,2;0,03326247
100886,2;0,03305279
100902,8;0,03289589
100919,8;0,03258358
100935,9;0,0324868
100952,5;0,03239883
100969,5;0,03234751
100986,1;0,03207038
101002,5;0,03207038
101019;0,03194135
101035,8;0,03140909
101051,9;0,03108358
101068,5;0,03087243
101085,8;0,03087243
101101,8;0,030761
101118,2;0,03065249
101135;0,03002786
101151,3;0,02985924
101167,9;0,02956158
101184,4;0,02945161
101201,1;0,02921114
101217,6;0,02890323
101234,4;0,02890323
101250,7;0,02890323
101267,3;0,02882991
101283,8;0,02808944
101300,5;0,02808651
101317,2;0,02808651
101333,5;0,02751026
101350,1;0,02751026
101366,7;0,02702933
101383,2;0,02678006
101400,3;0,02626686
101416,5;0,02617595
101432,9;0,02593695
101449,5;0,02592375
101466,1;0,02545015
101482,6;0,02505572
101499,2;0,02448827
101515,8;0,02448827
101532,4;0,02414663
101549,3;0,02262463
101566;0,02226833
101582,4;0,02202199
101598,6;0,02197507
101615,3;0,02144282
101631,7;0,0211041
101648,3;0,02094721
101664,9;0,02082405
101681,4;0,02055132
101698,2;0,0203695
101714,6;0,0203695
101731,1;0,02028886
101747,7;0,02028886
101764,4;0,02015836
101780,8;0,01930205
101797,5;0,01891349
101814,3;0,01871114
101830,5;0,01856158
101847,1;0,01849267
101863,7;0,01839003
101880,9;0,0180044
101896,8;0,018
101913,4;0,01814809
101929,9;0,01806452
101946,5;0,01806452
101963,1;0,01756598
101979,6;0,01744135
101996,2;0,01709531
102012,9;0,01688563
102029,5;0,01672434
102045,9;0,01671261
102062,5;0,01671261
102079;0,01656598
102095,6;0,0164956
102112,4;0,01680205
102128,9;0,01714809
102145,3;0,01714809
102161,9;0,01711437
102178,4;0,01675073
102195,1;0,01670674
102211,6;0,01619062
102228,2;0,01617155
102245,1;0,01648387
102261,3;0,01648387
102277,8;0,01648387
102295,1;0,01648827
102311;0,01647654
102327,5;0,01617889
102344,1;0,01601613
102360,7;0,01601613
102378,1;0,0159868
102393,8;0,0159868
102410,4;0,01597654
102426,9;0,0158651
102444;0,01552346
102460,1;0,01530792
102476,6;0,01530792
102493,2;0,01542229
102509,8;0,01541202
102526,3;0,01520968
102542,9;0,01516716
102559,5;0,01515689
102576,4;0,01561877
102592,6;0,01568475
102609,5;0,01565689
102625,7;0,0156349
102642,3;0,01548974
102659,5;0,01563343
102676,3;0,01563343
102692;0,01564663
102708,7;0,01576246
102725,1;0,01577713
102741,7;0,01581232
102758,3;0,01591496
102775;0,01594575
102791,4;0,016
102808;0,01587537
102824,5;0,0158783
102846,2;0,0159912
102857,6;0,01616862
102874,6;0,01640762
102890,8;0,01654106
102907,4;0,01665836
102924,2;0,01679765
102940,5;0,01681085
102957,1;0,01681818
102973,6;0,01672727
102990,2;0,01678592
103006,8;0,01679472
103023,5;0,01680059
103039,9;0,01680499
103057;0,01698094
103073,2;0,01713783
103089,6;0,01721847
103106,2;0,01721847
103122,8;0,01736657
103139,3;0,01750587
103156;0,01750587
103172,4;0,01744282
103189,5;0,01748827
103205,6;0,01756891
103222,1;0,01756012
103238,7;0,01756012
103255,4;0,01765542
103271,8;0,01774194
103288,8;0,01768035
103305;0,01768915
103321,5;0,01802639
103338,1;0,01820968
103354,9;0,01841936
103371,2;0,01846481
103387,8;0,01856305
103404,4;0,01860704
103420,9;0,01861584
103437,5;0,01872434
103454,1;0,0188651
103470,6;0,01901026
103487,2;0,01914809
103503,8;0,01916569
103520,3;0,0192478
103536,9;0,01938856
103553,9;0,01942522
103570;0,01948387
103586,6;0,01960851
103603,1;0,01961584
103619,8;0,01966862
103636,3;0,01966862
103652,9;0,01969941
103669,6;0,01970088
103686;0,01970088
103702,6;0,01985484
103719,1;0,01996628
103735,7;0,02003079
103752,3;0,02007038
103768,8;0,02006305
103785,4;0,02024193
103802;0,02032551
103818,5;0,02033724
103835,1;0,02033724
103851,8;0,02046774
103868,5;0,0204868
103886,6;0,02050293
103903,4;0,02039589
103920,2;0,01999267
103936,3;0,01989003
103952,9;0,01988416
103969,5;0,01992082
103986,1;0,01992082
104002,6;0,01998241
104019,2;0,01997361
104035,7;0,01985484
104052,8;0,01971701
104069,4;0,01971701
104085,4;0,01972874
104102,2;0,01969502
104118,6;0,01933724
104135,6;0,0189824
104151,7;0,01896041
104168,3;0,01892229
104185,2;0,01890176
104201,5;0,01884457
104218;0,01858944
104234,5;0,01852493
104251,2;0,01818182
104267,7;0,01814956
104284,3;0,01814956
104301,5;0,01816129
104317,4;0,01816129
104334;0,01807185
104350,5;0,01805572
104367,1;0,0180176
104383,6;0,01795894
104400,2;0,0178871
104416,8;0,01781965
104433,4;0,01771848
104450,2;0,01760997
104466,5;0,01760997
104483;0,0173871
104500;0,01731378
104516,3;0,01725806
104533;0,01716569
104549,3;0,01678886
104566,1;0,01658651
104582,6;0,01644428
104599,2;0,01644428
104616;0,01632551
104632,1;0,01615103
104648,7;0,01603226
104665,5;0,01597507
104682,1;0,01584311
104698,6;0,01571261
104715;0,01558064
104731,6;0,01554692
104748,1;0,01554692
104764,7;0,01525806
104781,8;0,0151129
104797,8;0,01507185
104814,4;0,01497947
104831,6;0,01490029
104847,5;0,01474633
104864,3;0,01474633
104880,7;0,01454399
104897,4;0,01433284
104914,1;0,01423754
104930,7;0,01423754
104947,2;0,01423754
104963,8;0,01419941
104980,4;0,01388856
104996,9;0,01366862
105013,5;0,01358211
105030,1;0,01353079
105046,6;0,01353079
105063,2;0,01335044
105079,8;0,01316422
105096,3;0,01310704
105112,9;0,01305279
105129,5;0,01304545
105146;0,01289883
105163;0,01283578
105179,2;0,01272874
105195,7;0,01273021
105212,3;0,01264516
105228,9;0,01262757
105245,4;0,01244721
105262,4;0,01223167
105279,1;0,01214076
105295,1;0,01206745
105311,7;0,01194135
105329,3;0,01149414
105344,8;0,01149414
105361,4;0,01130792
105378;0,01114809
105394,5;0,01105132
105411,7;0,01094135
105428;0,01094135
105444,4;0,01064076
105460,8;0,01052639
105477,6;0,01037243
105494,3;0,0102654
105510,6;0,01020968
105527,1;0,01018622
105543,7;0,01011877
105560,2;0,01011877
105577,2;0,01009238
105593,3;0,01008211
105610,5;0,009926686
105626,5;0,009784457
105643,1;0,009769795
105659,6;0,009697948
105676,2;0,009697948
105692,8;0,009636364
105709,3;0,009429619
105726,1;0,00943695
105742,4;0,009410557
105759,5;0,009400293
105775,6;0,009354839
105792,4;0,009324047
105808,7;0,009171555
105825,8;0,009115836
105841,8;0,009042522
105858,4;0,008986804
105875,3;0,008963344
105891,5;0,008932551
105908,2;0,008866569
105924,8;0,008834311
105941,5;0,008825514
105958,2;0,008825514
105974,9;0,008840176
105991,4;0,008835778
106007,8;0,008812317
106024,7;0,008819648
106041,2;0,00886217
106057,7;0,008863636
106074,8;0,008870968
106090,6;0,008865103
106107,2;0,008831378
106123,7;0,008796188
106140,3;0,008778593
106157,7;0,008759531
106173,6;0,008759531
106190;0,008780058
106207;0,008780058
106223,3;0,008756598
106240,1;0,008762464
106256,5;0,008759531
106273;0,008743402
106289,4;0,00874047
106306;0,008722874
106322,5;0,008708212
106339,1;0,008706745
106355,7;0,008705279
106372,3;0,008703813
106388,8;0,008708212
106405,4;0,008709677
106422,2;0,008714076
106438,6;0,008714076
106455,2;0,00871261
106471,6;0,008714076
106488,3;0,008709677
106504,8;0,00871261
106521,3;0,00871261
106537,9;0,008728739
106555,1;0,008715543
106571,8;0,008746334
106587,6;0,008759531
106605;0,008800587
106621;0,008810851
106637,3;0,008807918
106653,9;0,008821115
106670,4;0,008822581
106687,3;0,008837244
106703,6;0,008843109
106720,1;0,008865103
106736,7;0,008888563
106753,3;0,00890176
106769,8;0,008878299
106786,4;0,008878299
106803;0,008878299
106819,6;0,008881232
106836,1;0,008878299
106852,7;0,008881232
106869,7;0,008881232
106885,8;0,008863636
106902,8;0,008872434
106919;0,008875366
106935,5;0,008890029
106952,1;0,008863636
106969,5;0,008851906
106986,1;0,008802053
107002,7;0,008800587
107019,2;0,008800587
107036,1;0,008815249
107052,7;0,008818182
107069,4;0,008818182
107085,5;0,008843109
107102,1;0,008868035
107118,6;0,008843109
107135,2;0,008848974
107151,8;0,008848974
107168,3;0,0088739
107185,3;0,0088739
107201,7;0,008834311
107218;0,008841642
107234,9;0,008815249
107251,2;0,008793255
107268;0,008793255
107284,3;0,008784458
107300,9;0,008791789
107317,7;0,008788857
107334;0,008791789
107350,9;0,008791789
107367,2;0,008806452
107383,7;0,008799121
107400,3;0,008804985
107416,8;0,008812317
107433,4;0,008824047
107450;0,008816715
107466,6;0,008809384
107483,1;0,008809384
107499,7;0,008803519
107516,6;0,008802053
107532,8;0,008768328
107549,4;0,008755133
107566,5;0,008747801
107582,5;0,0087522
107599,1;0,008733138
107615,6;0,00872434
107632,2;0,00871261
107648,8;0,008702346
107665,5;0,008702346
107682;0,008677419
107698,6;0,008681818
107715,2;0,008668622
107731,6;0,008667155
107749,1;0,008612904
107765,2;0,008612904
107781,3;0,008609971
107798,7;0,008609971
107815,2;0,00863783
107831;0,008671555
107847,6;0,008702346
107864,2;0,008699413
107881,2;0,008699413
107897,3;0,008714076
107913,8;0,008705279
107930,4;0,008692082
107947,2;0,008689149
107964;0,008689149
107980,4;0,008697947
107998;0,008706745
108014,6;0,008709677
108031,1;0,008693549
108047,7;0,008680352
108064,3;0,008670088
108081;0,008670088
108097,4;0,008687683
108114,3;0,008695015
108130,6;0,008690616
108148;0,008677419
108163,7;0,008675953
108180,3;0,008640762
108197,5;0,008639297
108213,4;0,008630498
108230;0,0086261
108246,5;0,008612904
108263,5;0,008592376
108279,7;0,008587977
108296,5;0,00858651
108313;0,008593841
108329,4;0,008585044
108345,9;0,008579179
108362,5;0,008579179
108379,3;0,008580646
108396,2;0,008579179
108412,2;0,008580646
108428,8;0,008561584
108445,3;0,008564516
108461,9;0,00856305
108478,5;0,008558651
108495,1;0,008529326
108511,9;0,008529326
108528,2;0,008529326
108544,7;0,008526393
108561,3;0,008502932
108577,9;0,008485338
108594,4;0,008485338
108611;0,008458944
108627,8;0,008451613
108644,1;0,008472141
108660,7;0,008475074
108677,9;0,008473607
108694,5;0,008463344
108710,9;0,008463344
108727;0,008429619
108743,5;0,00841349
108760,1;0,00841349
108776,7;0,00839003
108793,3;0,008394429
108809,8;0,008388563
108826,4;0,008359238
108842,9;0,008354839
108860,1;0,008366569
108876,1;0,008343109
108893,2;0,008334311
108909,2;0,008326979
108925,8;0,008313783
108942,3;0,008348973
108959;0,008326979
108975,6;0,008341642
108992,6;0,008341642
109008,6;0,008365103
109028,4;0,008331379
109045,6;0,008325513
109061,5;0,008313783
109078,1;0,00828739
109094,7;0,008297654
109111,4;0,008303519
109127,8;0,008319648
109144,4;0,008313783
109161;0,008297654
109177,5;0,008296188
109194,1;0,008313783
109211,1;0,008340176
109227,2;0,008347508
109243,8;0,008357772
109260,4;0,008357772
109276,9;0,008388563
109293,5;0,008387097
109310,1;0,00838563
109326,6;0,00841349
109343,3;0,00841349
109359,8;0,008410557
109377;0,008442815
109393,6;0,008428153
109409,6;0,008428153
109426;0,008420821
109442,7;0,008419355
109459,2;0,00838563
109476;0,008400293
109492,3;0,00840176
109508,8;0,008400293
109525,4;0,008400293
109542;0,008400293
109559;0,008423754
109575,1;0,008412024
109591,7;0,00841349
109608,3;0,008416423
109625,1;0,008416423
109641,4;0,008423754
109658,1;0,008422287
109675,2;0,008444281
109691,1;0,008448681
109707,6;0,008438417
109724,2;0,008450147
109740,9;0,008451613
109757,3;0,008450147
109774,9;0,008461877
109790,5;0,008469208
109807,5;0,008438417
109823,6;0,00843695
109840,2;0,00841349
109857;0,00841349
109873,4;0,008419355
109890;0,008419355
109906,4;0,008394429
109923;0,008426687
109939,6;0,00843695
109956,1;0,008450147
109972,9;0,008461877
109989,4;0,00847654
110006,3;0,00848827
110022,4;0,008485338
110039,1;0,008485338
110056,1;0,008469208
110072,1;0,008469208
110091,3;0,008469208
110107,8;0,00847654
110124,8;0,008485338
110141;0,008486804
110157,6;0,008491202
110174,2;0,008508798
110190,6;0,008504399
110207,4;0,00851173
110223,8;0,008510264
110241,1;0,00851173
110257;0,008538123
110273,5;0,008548387
110290;0,008567449
110306,6;0,008567449
110323,2;0,008577713
110339,8;0,008564516
110356,3;0,008564516
110373;0,00860264
110389,5;0,008601173
110406,2;0,008601173
110422,6;0,008607038
110439,2;0,008607038
110456,5;0,008604106
110472,3;0,008611437
110488,9;0,008609971
110505,4;0,008634898
110522;0,008629032
110539;0,008607038
110555,1;0,0086261
110571,7;0,008634898
110588,3;0,00861437
110604,8;0,008627567
110621,4;0,008627567
110638,5;0,008636364
110654,5;0,008646628
110671,6;0,008649561
110687,7;0,008649561
110704,2;0,008652492
110721,4;0,008643695
110737,4;0,008621701
110754,3;0,008674487
110770,5;0,008678886
110787;0,008636364
110803,8;0,008624634
110820,4;0,0086261
110836,8;0,008634898
110853,3;0,008611437
110870,3;0,008617302
110886,6;0,008645161
110903;0,008652492
110919,6;0,008661291
110936,1;0,008661291
110953,1;0,008673021
110969,3;0,008677419
110986,4;0,008677419
111002,4;0,008684751
111019;0,008696481
111035,9;0,008718476
111052,1;0,008728739
111068,7;0,00872434
111085,9;0,008733138
111103,9;0,00873607
111120,5;0,008730206
111137;0,008730206
111153,6;0,008747801
111170,1;0,0087522
111187;0,0087522
111203,3;0,008747801
111219,9;0,008771261
111236,4;0,008788857
111253;0,00877566
111269,6;0,00877566
111286,1;0,008781525
111302,7;0,008780058
111319,3;0,008780058
111335,8;0,008782991
111352,5;0,008782991
111369,1;0,008753666
111385,5;0,008749267
111402,4;0,008753666
111418,7;0,008778593
111435,2;0,008793255
111451,8;0,00877566
111468,4;0,008768328
111484,9;0,008758064
111501,5;0,008756598
111518,4;0,008756598
111535,2;0,008753666
111551,2;0,008734604
111567,8;0,008722874
111584,3;0,008722874
111601,2;0,008739003
111617,5;0,008725807
111634;0,008753666
111650,6;0,00873607
111667,3;0,008739003
111683,7;0,00874047
111700,3;0,008733138
111716,9;0,00874047
111733,4;0,008741936
111750;0,00874047
111767;0,00874047
111784;0,0087522
111799,7;0,008721408
111816,3;0,008728739
111833,2;0,008747801
111849,4;0,008771261
111866;0,008782991
111882,5;0,008759531
111899,1;0,008774194
111915,6;0,0087522
111932,2;0,008744868
111948,9;0,008734604
111965,5;0,008741936
111981,9;0,008741936
111998,5;0,0087522
112015,1;0,008722874
112031,6;0,008709677
112048,2;0,008717009
112064,9;0,008711143
112081,3;0,008714076
112098;0,008702346
112114,6;0,008677419
112131;0,008690616
112148,4;0,00870088
112165,2;0,008705279
112181,6;0,008725807
112198,5;0,008721408
112214,7;0,008727273
112232,2;0,008718476
112247,9;0,008697947
112264,4;0,008702346
112281;0,008702346
112297,5;0,008643695
112314,1;0,008636364
112330,7;0,008642229
112347,2;0,008651027
112364,1;0,008634898
112380,5;0,008639297
112397,4;0,008631965
112413,5;0,008633431
112430,5;0,008633431
112446,6;0,00861437
112463,2;0,008621701
112479,8;0,008631965
112496,3;0,008651027
112513,1;0,008639297
112529,5;0,008639297
112546,3;0,008673021
112562,6;0,008668622
112579,2;0,008665689
112595,7;0,008675953
112612,3;0,008658358
112628,9;0,008658358
112645,6;0,008653959
112662,1;0,008630498
112678,9;0,008618768
112695,1;0,008612904
112711,7;0,008618768
112728,3;0,00861437
112745,6;0,008615836
112761,5;0,008580646
112778,1;0,008580646
112794,6;0,00861437
112811,1;0,008621701
112828,2;0,008627567
112844,5;0,008664223
112861,3;0,008665689
112877,5;0,008661291
112894;0,008652492
112910,5;0,008665689
112927,1;0,008665689
112943,6;0,008652492
112960,3;0,008642229
112976,8;0,008648094
112993,3;0,008645161
113009,9;0,008627567
113026,5;0,008631965
113043,2;0,008595308
113059,6;0,008595308
113076,2;0,008617302
113092,7;0,008611437
113109,4;0,008596774
113126;0,008596774
113142,8;0,008605572
113159;0,008589443
113183,2;0,008596774
113192,1;0,008592376
113209,3;0,008592376
113225,3;0,008583578
113242,2;0,008583578
113258,6;0,008579179
113275,3;0,008579179
113291,5;0,00856305
113308,1;0,00858651
113324,8;0,00857478
113341,2;0,00859091
113357,9;0,008573314
113374,4;0,008583578
113390,9;0,008589443
113407,5;0,008585044
113424,1;0,008582111
113440,9;0,008582111
113457,2;0,008557185
113474,4;0,008554253
113490,3;0,008570381
113506,9;0,008561584
113523,5;0,008560117
113540;0,008576247
113556,6;0,008570381
113573,2;0,008573314
113589,8;0,008576247
113606,3;0,008568916
113622,9;0,008555719
113639,4;0,008555719
113656;0,008532259
113672,7;0,008542522
113689,1;0,008532259
113705,7;0,008527859
113722,7;0,008527859
113738,8;0,008529326
113755,4;0,008527859
113772;0,008533725
113788,5;0,008529326
113805,1;0,008532259
113822,2;0,008527859
113838,2;0,008507332
113854,8;0,008504399
113871,4;0,008494135
113888,1;0,008494135
113904,5;0,008513196
113921,1;0,008517596
113937,9;0,008545455
113954,3;0,008555719
113970,8;0,00853519
113988;0,008510264
114003,9;0,008517596
114020,5;0,008542522
114037;0,008538123
114053,9;0,008519062
114070,3;0,008519062
114086,7;0,008520528
114103,3;0,008538123
114119,9;0,00855132
114136,5;0,008549853
114153,4;0,008521995
114169,6;0,008520528
114186,3;0,008529326
114202,7;0,008529326
114219,3;0,008498534
114235,8;0,008505865
114252,4;0,008527859
114269;0,008524927
114286,2;0,008524927
114302,1;0,008545455
114318,7;0,008552786
114335,2;0,00853519
114351,8;0,008526393
114368,4;0,008526393
114385,3;0,008520528
114401,5;0,008530792
114418,7;0,008527859
114434,6;0,00853519
114451,5;0,00853519
114467,8;0,008545455
114484,3;0,008524927
114500,9;0,008516129
114517,5;0,008510264
114534,3;0,008510264
114550,6;0,008498534
114567,6;0,008516129
114583,9;0,008516129
114600,6;0,008498534
114616,9;0,008489736
114633,6;0,008497068
114650;0,008530792
114667;0,008517596
114683,4;0,008501466
114699,7;0,008505865
114716,5;0,0085
114732,8;0,008502932
114749,4;0,008502932
114766;0,00851173
114782,5;0,008485338
114799,5;0,00848827
114815,9;0,008482405
114832,5;0,008482405
114848,8;0,008458944
114865,4;0,008458944
114881,9;0,008450147
114899,2;0,008407624
114915,1;0,008398827
114931,6;0,008392962
114948,2;0,00839003
114964,8;0,008400293
114981,3;0,008423754
114998,3;0,008435484
115014,8;0,00842522
115031;0,008428153
115048,4;0,008434018
115064,2;0,00841349
115081,1;0,00841349
115097,3;0,00841349
115113,9;0,00841349
115130,6;0,008395894
115147;0,008394429
115163,6;0,008394429
115180,1;0,008404693
115196,7;0,008404693
115213,7;0,008406159
115230,5;0,008379766
115246,4;0,008379766
115263;0,00838563
115279,6;0,00838563
115297;0,008378299
115312,9;0,008384164
115329,3;0,008375367
115345,8;0,008381232
115362,7;0,00839003
115378,9;0,008391496
115395,5;0,008404693
115412,1;0,008400293
115428,6;0,008400293
115445,5;0,00840176
115462;0,008422287
115478,7;0,008434018
115494,9;0,00842522
115511,5;0,008434018
115528;0,008435484
115545,2;0,008434018
115561,6;0,008441349
115578,6;0,008451613
115594,3;0,008451613
115611,1;0,008456012
115627,4;0,008456012
115644,1;0,00846481
115660,6;0,008466275
115677,4;0,008482405
115693,7;0,008475074
115710,3;0,008478006
115726,8;0,008486804
115743,4;0,008492669
115760;0,008483871
115776,5;0,008495601
115793,5;0,008501466
115809,8;0,008501466
115826,7;0,008498534
115842,8;0,008492669
115859,4;0,008453079
115875,9;0,008453079
115892,5;0,00843695
115909,5;0,008400293
115925,6;0,008395894
115942,2;0,008400293
115958,9;0,008400293
115975,3;0,008397361
115992,5;0,008403226
116008,5;0,008392962
116025;0,008409091
116042,4;0,008409091
116058,2;0,008419355
116074,7;0,008422287
116091,3;0,008414956
116107,9;0,008387097
116124,4;0,008414956
116141,1;0,008414956
116157,6;0,008414956
116174,1;0,008409091
116190,7;0,008414956
116207,3;0,008416423
116223,8;0,008407624
116241;0,008407624
116257,3;0,0083739
116273,5;0,008369502
116290,1;0,008363636
116306,7;0,008360704
116323,2;0,008376833
116339,9;0,008378299
116357,4;0,00842522
116374;0,008400293
116390,5;0,008391496
116407,1;0,008395894
116423,6;0,008417889
116440,4;0,008417889
116456,8;0,008429619
116473,4;0,00843695
116490,1;0,008432551
116506,5;0,00842522
116523;0,00843695
116539,6;0,008426687
116556,2;0,008426687
116572,8;0,008429619
116589,5;0,008448681
116605,9;0,008432551
116622,4;0,00846481
116639;0,00846481
116656;0,008441349
116672,1;0,008445748
116689,1;0,008457478
116705,7;0,008475074
116722,3;0,008492669
116738,4;0,008504399
116755,5;0,008489736
116771,5;0,008482405
116788,3;0,008491202
116804,7;0,008480938
116821,2;0,008480938
116837,8;0,008480938
116854,4;0,00846481
116870,9;0,008467742
116887,5;0,008486804
116904,2;0,008505865
116920,7;0,008513196
116937,2;0,008529326
116953,8;0,00852346
116970,3;0,008498534
116986,9;0,0085
117004,3;0,008530792
117020;0,008520528
117036,6;0,008548387
117053,2;0,008564516
117069,7;0,008595308
117087;0,008595308
117103,8;0,00859091
117120,2;0,00859091
117136,6;0,008599707
117152,6;0,008568916
117169,1;0,008554253
117185,7;0,00855132
117202,8;0,008543989
117219,5;0,008552786
117235,5;0,008565983
117252;0,008587977
117268,5;0,008580646
117285,5;0,00856305
117301,7;0,008554253
117318,2;0,008564516
117335,2;0,008548387
117351,4;0,008530792
117368,5;0,008533725
117384,5;0,008520528
117402,4;0,00855132
117419;0,008568916
117435,5;0,008568916
117452,2;0,008543989
117468,7;0,00853959
117485,7;0,008524927
117501,8;0,00852346
117518,4;0,008502932
117535,3;0,008497068
117551,5;0,008494135
117568,1;0,008486804
117584,7;0,008469208
117601,2;0,008461877
117617,8;0,008460411
117634,3;0,008460411
117651;0,008479472
117667,5;0,008478006
117684;0,008461877
117701,2;0,008467742
117717,2;0,008467742
117734,5;0,008479472
117750,3;0,008479472
117766,9;0,008454545
117783,4;0,008428153
117800,1;0,008434018
117817,2;0,008463344
117833,5;0,008463344
117850;0,008480938
117866,3;0,008478006
117882,8;0,008480938
117899,4;0,008497068
117916,3;0,008507332
117932,5;0,008514663
117949,1;0,008538123
117965,7;0,008538123
117982,2;0,008546921
117999;0,008558651
118015,9;0,00853959
118032,2;0,008532259
118048,6;0,00853959
118065,1;0,008530792
118081,6;0,008526393
118098,2;0,008527859
118114,8;0,008527859
118131,7;0,00852346
118148,2;0,008529326
118164,5;0,008564516
118181,2;0,008568916
118198;0,008585044
118214,5;0,008601173
118231,2;0,008599707
118247,4;0,008596774
118263,9;0,0086261
118281;0,008642229
118297;0,008642229
118313,8;0,008648094
118330,4;0,008645161
118346,7;0,008636364
118363,5;0,008636364
118379,8;0,008629032
118397,1;0,008631965
118413;0,0086261
118429,5;0,008631965
118446,1;0,008630498
118464,6;0,008631965
118479,5;0,008611437
118495,8;0,008624634
118512,4;0,008624634
118528,9;0,008624634
118545,6;0,008630498
118562,1;0,008656892
118578,6;0,008624634
118595,2;0,008624634
118611,8;0,008639297
118628,3;0,008633431
118645,3;0,008631965
118661,5;0,008607038
118678;0,008617302
118694,6;0,008604106
118711,2;0,008599707
118727,8;0,00859091
118744,3;0,008593841
118760,9;0,008605572
118777,4;0,008629032
118794,1;0,008629032
118810,6;0,008629032
118827,1;0,008658358
118844,3;0,008677419
118860,3;0,008677419
118877;0,008671555
118893,7;0,008696481
118910;0,008702346
118926,7;0,008686217
118943,2;0,008678886
118959,7;0,008705279
118976,2;0,008689149
118992,8;0,008692082
119009,5;0,008670088
119026,5;0,008670088
119042,5;0,008670088
119059,1;0,008665689
119076,5;0,008608504
119092,2;0,00859091
119108,8;0,008587977
119125,3;0,008611437
119142;0,008639297
119158,5;0,008662757
119175;0,008653959
119191,9;0,008649561
119208,7;0,008645161
119224,7;0,008649561
119241,3;0,008652492
119257,9;0,008634898
119274,4;0,008651027
119291;0,008651027
119307,6;0,008687683
119324,1;0,008690616
119340,7;0,008715543
119357,7;0,008718476
119373,8;0,008721408
119390,5;0,008725807
119407;0,008689149
119423,5;0,008693549
119440,2;0,008699413
119456,7;0,00870088
119473,8;0,008706745
119490,2;0,008714076
119506,4;0,008706745
119523,5;0,008706745
119543,3;0,008722874
119556,1;0,008737537
119572,9;0,00876393
119589,2;0,00876393
119605,8;0,00876393
119622,4;0,008784458
119638,9;0,008784458
119655,5;0,008785924
119672;0,008785924
119688,6;0,008755133
119705,5;0,008774194
119721,7;0,008766863
119738,3;0,008769795
119754,9;0,008766863
119772;0,008778593
119788;0,008777127
119804,7;0,00877566
119821,1;0,008753666
119837,7;0,008749267
119854,4;0,008744868
119871,1;0,008744868
119887,6;0,008759531
119904;0,008756598
119920,7;0,008766863
119937,1;0,008760997
119953,7;0,008760997
119970,6;0,008749267
119986,8;0,008737537
120003,4;0,008717009
120020,6;0,008725807
120036,5;0,008737537
120053,1;0,008743402
120069,6;0,008750733
120086,7;0,008755133
120102,8;0,008755133
120119,3;0,008758064
120135,9;0,008744868
120153,4;0,008744868
120169;0,008721408
120185,6;0,00872434
120202,2;0,00872434
120218,7;0,00872434
120235,4;0,008725807
120251,9;0,008739003
120268,4;0,008737537
120285;0,008737537
120301,7;0,00873607
120318,2;0,008730206
120334,7;0,008721408
120351,5;0,008709677
120367,8;0,008711144
120384,4;0,008715543
120401;0,008715543
120417,8;0,008715543
120434,1;0,008695015
120450,7;0,008702346
120467,2;0,008725807
120483,8;0,008728739
120500,4;0,008719942
120517,7;0,008717009
120534,4;0,008717009
120550,5;0,008733138
120566,6;0,008739003
120585,2;0,00874047
120599,8;0,008747801
120616,3;0,008715543
120632,9;0,008725807
120649,5;0,008766863
120666;0,008772727
120682,6;0,008772727
120699,3;0,008765396
120716;0,008768328
120732,3;0,008749267
120748,9;0,008744868
120765,4;0,008744868
120782;0,008750733
120798,6;0,008750733
120815,1;0,008749267
120831,7;0,008758064
120848,3;0,008758064
120865,3;0,008758064
120881,4;0,008760997
120898;0,008759531
120914,5;0,008756598
120931,1;0,008766863
120947,7;0,008771261
120964,3;0,008765396
120981,1;0,008768328
120997,8;0,008760997
121014,2;0,008753666
121030,5;0,008756598
121047,1;0,008769795
121063,6;0,008791789
121080,2;0,008799121
121096,8;0,008818182
121113,4;0,008818182
121130,4;0,008818182
121146,7;0,008790323
121163;0,008790323
121179,7;0,008824047
121196,2;0,008824047
121212,7;0,008834311
121229,3;0,008822581
121246,7;0,008818182
121262,4;0,008832845
121279;0,008822581
121295,6;0,008809384
121312,1;0,008809384
121328,7;0,008802053
121345,3;0,008809384
121361,8;0,008812317
121378,4;0,008806452
121395,3;0,008815249
121411,5;0,008807918
121428,3;0,008796188
121445,3;0,008813784
121461,2;0,008790323
121477,9;0,008790323
121494,4;0,008843109
121511;0,008843109
121527,7;0,008838709
121544,1;0,008803519
121560,6;0,008803519
121577,2;0,008793255
121593,8;0,008793255
121610,3;0,008821115
121627;0,008835778
121643,5;0,008835778
121662;0,008835778
121678,6;0,008847508
121695,2;0,008866569
121711,8;0,00886217
121728,4;0,008853372
121744,9;0,008903226
121761,5;0,008894429
121778;0,008892962
121794,6;0,008892962
121811,1;0,008884165
121827,7;0,00891349
121844,9;0,00893695
121860,9;0,00893695
121877,4;0,008907625
121894;0,00891349
121910,9;0,008923754
121927,1;0,008919355
121943,7;0,008914956
121960,3;0,008938417
121976,8;0,008939883
121993,4;0,008954545
122009,9;0,008978006
122026,5;0,008975074
122043,1;0,008972141
122059,7;0,008997068
122076,2;0,008997068
122093,1;0,009014663
122109,7;0,009026393
122125,9;0,009032258
122142,5;0,009043989
122159,1;0,009042522
122175,6;0,009035191
122192,2;0,009035191
122209,1;0,009035191
122225,3;0,009035191
122241,9;0,009035191
122258,5;0,009017595
122275,1;0,009010264
122291,6;0,009008798
122308,1;0,009023461
122324,9;0,009032258
122341,6;0,009027859
122357,9;0,009029326
122374,4;0,009033725
122391;0,009035191
122407,7;0,009038123
122424,1;0,009042522
122441,2;0,00905132
122457,5;0,00905132
122473,8;0,009057185
122490,9;0,009073314
122507;0,009089443
122523,5;0,009087977
122540,4;0,009079179
122557;0,009079179
122573,2;0,009065983
122589,8;0,009068915
122606,4;0,009049853
122622,9;0,009033725
122639,5;0,009033725
122661,6;0,008997068
122673;0,008997068
122689,4;0,008991202
122705,9;0,008991202
122722,5;0,008982405
122739,1;0,00898827
122755,5;0,009004399
122772,5;0,008989736
122788,6;0,009001466
122805,2;0,009000001
122821,7;0,008991202
122838,3;0,008998534
122855,2;0,008989736
122872;0,009017595
122888,6;0,009007332
122905;0,008978006
122921,1;0,008985338
122937,8;0,008998534
122954,3;0,008992669
122970,8;0,008980938
122987,4;0,00898827
123004,4;0,008982405
123020,5;0,009004399
123037,1;0,009004399
123054,2;0,009011731
123070,5;0,009024926
123086,8;0,009013196
123103,5;0,009021995
123119,9;0,009021995
123136,5;0,009035191
123153,1;0,009020528
123169,6;0,009014663
123186,2;0,009005865
123203,1;0,008973607
123219,3;0,00897654
123235,9;0,00897654
123252,5;0,008961877
123269;0,00895308
123285,6;0,008970675
123302,3;0,008978006
123318,7;0,008967742
123335,5;0,008951613
123351,9;0,008938417
123368,8;0,008938417
123385,3;0,00893695
123401,5;0,008951613
123418,7;0,008957478
123434,7;0,008957478
123451,3;0,008969208
123468,1;0,009021995
123484,4;0,009021995
123501,2;0,009005865
123517,5;0,008998534
123534,1;0,009005865
123550,6;0,009023461
123567,2;0,009007332
123583,8;0,009000001
123600,4;0,009000001
123617,6;0,008982405
123633,8;0,008969208
123650,1;0,009013196
123666,6;0,009021995
123683,2;0,008986804
123700,4;0,008995601
123717;0,009001466
123732,9;0,008983871
123750,6;0,00896481
123767,1;0,008960411
123783,8;0,008975074
123800,4;0,008994135
123816,8;0,008995601
123833,6;0,008982405
123850;0,008969208
123866,5;0,008978006
123883,1;0,008997068
123899,8;0,009000001
123916,2;0,009000001
123933,2;0,008985338
123949,4;0,009005865
123965,9;0,008985338
123982,5;0,008980938
123999,1;0,008967742
124015,9;0,008948681
124032,2;0,008950147
124049,3;0,008950147
124065,4;0,008944281
124081,9;0,008931085
124098,5;0,00893695
124115,1;0,00891349
124131,6;0,008909091
124148,2;0,008909091
124164,8;0,008910557
124182;0,008920821
124197,9;0,008900293
124214,5;0,008928153
124231;0,008932551
124247,6;0,008934018
124264,3;0,008929619
124280,7;0,008917889
124297,3;0,008929619
124313,8;0,008917889
124330,4;0,00892522
124347;0,008934018
124363,5;0,00893695
124380,3;0,008904693
124396,7;0,008916423
124413,3;0,008898827
124429,8;0,008891496
124446,6;0,008892962
124462,9;0,008884165
124480;0,008884165
124496,7;0,008881232
124512,6;0,008878299
124529,2;0,008878299
124545,8;0,008868035
124562,3;0,008872434
124578,9;0,008869502
124595,5;0,008878299
124612,1;0,008876833
124628,6;0,008887097
124645,4;0,008891496
124661,7;0,008895895
124678,3;0,008898827
124695;0,008897361
124711,4;0,008898827
124728,4;0,008888563
124744,6;0,008888563
124761,1;0,008888563
124777,7;0,008879766
124794,3;0,008879766
124810,8;0,008882698
124828,9;0,008879766
124845,4;0,00886217
124862;0,008887097
124878,6;0,008887097
124895,6;0,0088739
124911,7;0,008882698
124928,5;0,008882698
124944,8;0,008888563
124961,5;0,008888563
124978;0,008900293
124994,5;0,008898827
125011,1;0,008898827
125027,6;0,008894429
125044,2;0,008887097
125060,8;0,008892962
125077,4;0,008900293
125094,2;0,008909091
125110,8;0,00890176
125127,5;0,008910557
125143,6;0,008923754
125160,2;0,008935484
125176,8;0,008935484
125193,3;0,008914956
125209,9;0,00895308
125226,4;0,008985338
125243,7;0,008980938
125259,9;0,008991202
125276,2;0,008989736
125292,7;0,008997068
125309,4;0,008997068
125325,9;0,008997068
125342,4;0,009026393
125359,2;0,009014663
125375,7;0,009004399
125392,1;0,009016129
125409,4;0,009011731
125425,3;0,008994135
125441,8;0,008978006
125458,4;0,008957478
125475,5;0,008909091
125491,5;0,008909091
125508,1;0,008904693
125524,6;0,008903226
125541,2;0,008931085
125557,8;0,00895308
125575,2;0,008945748
125590,9;0,008929619
125607,5;0,008932551
125624,1;0,008912024
125640,6;0,008912024
125657,2;0,008912024
125673,8;0,008912024
125690,3;0,008912024
125706,9;0,008879766
125723,5;0,008882698
125740;0,008884165
125756,6;0,008872434
125773,2;0,008881232
125789,7;0,008881232
125806,3;0,0088739
125823,4;0,008898827
125840,3;0,00888563
125856,6;0,008887097
125873;0,00889736
125889,6;0,008904693
125906,2;0,008904693
125922,7;0,008929619
125939,3;0,008929619
125955,9;0,008956012
125972,5;0,008944281
125989;0,008929619
126005,6;0,008929619
126022,4;0,008947214
126038,7;0,008963344
126055,7;0,008960411
126071,8;0,008960411
126088,4;0,008951613
126105,4;0,008960411
126121,6;0,00894135
126138,1;0,008967742
126154,7;0,008967742
126171,3;0,008948681
126188;0,008966275
126204,4;0,008951613
126221;0,008957478
126237,5;0,008958944
126254,1;0,008960411
126270,7;0,008960411
126287,3;0,008947214
126303,8;0,008947214
126320,4;0,008947214
126336,9;0,00892522
126353,5;0,008914956
126370,5;0,008932551
126386,6;0,008929619
126403,2;0,008929619
126419,8;0,008939883
126436,4;0,008939883
126452,9;0,008942815
126469,5;0,008951613
126486;0,00895308
126502,6;0,008954545
126519,1;0,008914956
126535,7;0,008919355
126552,3;0,008956012
126568,8;0,008956012
126585,4;0,008966275
126602;0,008961877
126618,9;0,008970675
126635,4;0,008980938
126651,7;0,008980938
126669;0,009001466
126685,4;0,009001466
126701,4;0,008997068
126718,3;0,008997068
126734,8;0,009052786
126751,1;0,009036657
126767,6;0,009042522
126784,2;0,009052786
126800,9;0,009052786
126823,9;0,009043989
126833,9;0,009065983
126850,5;0,009065983
126867,2;0,009043989
126883,6;0,009054252
126900,2;0,009064516
126916,8;0,009087977
126933,3;0,00909824
126949,9;0,009108504
126966,9;0,009108504
126983;0,009099707
126999,6;0,009083577
127016,1;0,00907478
127032,7;0,009090909
127049,3;0,009118768
127065,9;0,00910264
127082,9;0,009109971
127099;0,0091261
127115,6;0,009104106
127132,2;0,00911437
127148,7;0,00911437
127165,3;0,009159824
127181,8;0,009168622
127198,4;0,009168622
127215,1;0,009173021
127231,5;0,009178886
127248,3;0,009189149
127264,7;0,009181818
127281,2;0,009173021
127297,8;0,009190616
127314,3;0,009190616
127330,9;0,009195015
127347,5;0,009195015
127364,3;0,009195015
127380,6;0,009199413
127397,2;0,009203812
127413,8;0,009227273
127430,3;0,00923607
127446,9;0,0092478
127463,4;0,009249267
127480;0,009272727
127496,6;0,009294721
127513,2;0,00930352
127529,7;0,009278593
127546,3;0,009269794
127562,9;0,0092522
127579,4;0,009249267
127596;0,009259531
127613,1;0,009259531
127629,3;0,009278593
127646,4;0,009297654
127662,3;0,009307918
127678,8;0,009307918
127695,8;0,00928739
127711,9;0,009294721
127728,9;0,009296188
127745,1;0,009316715
127761,7;0,009332845
127778,7;0,009321115
127794,8;0,009329912
127811,6;0,009337244
127827,9;0,009309384
127844,5;0,009318182
127861;0,009321115
127877,6;0,009304985
127894,6;0,009299121
127910,7;0,009300587
127927,3;0,009281525
127944,3;0,009284457
127960,5;0,009297654
127977;0,00929912
127993,6;0,00929912
128010,1;0,009332845
128027,2;0,009344575
128043,3;0,009354839
128059,8;0,009378299
128076,4;0,009379766
128093;0,009382698
128109,5;0,009382698
128126,1;0,009387097
128143;0,009388563
128159,5;0,00938563
128176;0,009407625
128192,4;0,009407625
128209;0,009475074
128225,5;0,009495601
128242,1;0,009501467
128259,4;0,009513197
128275,7;0,009505865
128292,1;0,009517595
128309,1;0,009536657
128325,1;0,009536657
128341,5;0,00955132
128358,1;0,009555719
128374,6;0,00957478
128392,1;0,00957478
128407,7;0,009568915
128424,4;0,009555719
128440,9;0,009571848
128457,4;0,009554252
128474;0,009583578
128490,6;0,009604106
128507,1;0,0096261
128524,6;0,0096261
128540,3;0,009643695
128556,9;0,009623167
128573,8;0,009618768
128590;0,00960264
128606,6;0,009601173
128623,1;0,009601173
128639,8;0,009601173
128656,3;0,009605572
128673;0,009599707
128689,4;0,009590909
128705,9;0,009599707
128722,6;0,009599707
128739,1;0,009620234
128755,6;0,009623167
128772,2;0,009618768
128788,8;0,009627566
128805,3;0,009627566
128827,2;0,0096261
128838,5;0,009612903
128855;0,009621701
128871,6;0,009618768
128888,6;0,009615836
128905,1;0,009601173
128921,3;0,009599707
128937,9;0,009565983
128955;0,009573314
128971,2;0,00958651
128987,6;0,009593842
129004,5;0,009593842
129020,7;0,00956305
129037,8;0,009541056
129054,2;0,009538123
129070,4;0,009549853
129087,7;0,009545455
129103,5;0,009526393
129120,1;0,009527859
129136,7;0,009523461
129153,2;0,009523461
129169,8;0,009542522
129186,4;0,009526393
129203;0,009546921
129219,5;0,009519062
129236,1;0,009519062
129252,7;0,009521995
129269,5;0,009521995
129285,8;0,009529326
129302,4;0,00955132
129318,9;0,009545455
129335,8;0,009548387
129352,2;0,009548387
129369;0,009554252
129385,4;0,009571848
129402;0,00957478
129418,3;0,009565983
129434,9;0,009573314
129451,5;0,009555719
129468;0,009565983
129484,6;0,009565983
129501,2;0,009532258
129517,7;0,009526393
129534,3;0,009519062
129550,9;0,009523461
129567,5;0,009514663
129584,3;0,009520528
129600,6;0,009517595
129617,1;0,009543989
129633,7;0,009543989
129650,3;0,009548387
129666,8;0,009542522
129683,5;0,009568915
129700;0,00955132
129716,7;0,00955132
129733,5;0,009543989
129749,7;0,009579179
129766,2;0,009545455
129783,1;0,009530792
129799,4;0,009529326
129816;0,009533725
129838,1;0,009541056
129849;0,009533725
129865,6;0,009523461
129882,2;0,009523461
129898,7;0,009530792
129915,3;0,009526393
129931,9;0,009542522
129949;0,009504399
129965,2;0,009517595
129981,6;0,009524927
129998,5;0,009538123
130015,5;0,009530792
130031,3;0,009548387
130047,9;0,009523461
130064,4;0,009529326
130081,3;0,009495601
130097,5;0,009504399
130114,5;0,009502932
130130,7;0,009513197
130147,3;0,009507332
130163,9;0,009491202
130181;0,009491202
130196,9;0,009382698
130213,5;0,009378299
130230,1;0,0093739
130246,8;0,009390029
130263,2;0,009390029
130279,8;0,009391496
130296,5;0,00938563
130312,9;0,009375366
130329,5;0,009363636
130346,2;0,009372435
130362,7;0,009360704
130379,5;0,009359238
130395,8;0,009359238
130412,3;0,009379766
130429,8;0,009375366
130446,3;0,009375366
130462;0,009381232
130478,8;0,00936217
130495,2;0,009348974
130511,7;0,009341642
130528,5;0,009341642
130545,2;0,009375366
130561,5;0,009375366
130578;0,009331378
130594,5;0,009329912
130611,1;0,009346041
130627,7;0,009347508
130644,2;0,009343109
130661,2;0,009316715
130677,4;0,009321115
130694,2;0,009322581
130710,9;0,009306452
130727,1;0,009294721
130743,7;0,009294721
130760,2;0,00930352
130776,8;0,009291789
130793,4;0,00927566
130809,9;0,009280059
130827,2;0,009281525
130843;0,009288857
130859,6;0,009302053
130876,2;0,009309384
130892,7;0,009294721
130909,3;0,009293255
130925,9;0,009296188
130942,5;0,009296188
130959;0,009309384
130975,6;0,009294721
130992,1;0,009310851
131009,2;0,009309384
131025,3;0,00928739
131042,3;0,009282991
131058,4;0,009288857
131075,4;0,009288857
131091,8;0,009299121
131108,1;0,009318182
131124,8;0,009318182
131141,5;0,009304985
131157,8;0,009304985
131174,4;0,00928739
131191;0,00928739
131207,5;0,009249267
131224,1;0,009240469
131240,6;0,009239003
131257,2;0,00923607
131273,8;0,00923607
131290,3;0,009215543
131306,9;0,009178886
131323,5;0,009189149
131340,4;0,009189149
131356,6;0,009186218
131373,2;0,009170088
131389,7;0,009170088
131406,3;0,009158358
131422,9;0,009161291
131439,5;0,009161291
131456;0,009164223
131472,6;0,009143695
131489,2;0,00913783
131505,7;0,009148094
131522,3;0,009149561
131538,8;0,009164223
131555,4;0,009190616
131572,3;0,009190616
131588,6;0,009183285
131605,1;0,009170088
131621,7;0,009171555
131638,3;0,009187683
131654,8;0,009186218
131671,4;0,009171555
131687,9;0,009171555
131704,6;0,009164223
131721,1;0,009164223
131737,7;0,009153959
131754,2;0,009148094
131770,8;0,009152493
131787,4;0,009145161
131803,9;0,009145161
131820,5;0,009149561
131837;0,009149561
131853,6;0,009164223
131875,7;0,009162757
131886,8;0,009183285
131903,5;0,009184751
131919,9;0,009171555
131936,5;0,009171555
131953;0,009171555
131969,6;0,009206745
131986,1;0,009174487
132002,8;0,009167155
132019,3;0,009145161
132035,8;0,009145161
132052,4;0,009139297
132069;0,009124634
132085,5;0,0091261
132102,1;0,009130498
132118,7;0,00913783
132135,3;0,009139297
132152,1;0,009145161
132168,4;0,009170088
132185,1;0,009208212
132201,5;0,009217009
132218,2;0,009214076
132234,7;0,009199413
132251,8;0,009193549
132267,8;0,009184751
132284,4;0,009167155
132300,9;0,009153959
132317,8;0,009156892
132334,5;0,009149561
132350,6;0,009159824
132367,3;0,009159824
132383,9;0,009155425
132400,3;0,009167155
132417,4;0,009158358
132433,9;0,009158358
132450;0,009155425
132466,6;0,009155425
132483,2;0,009151027
132499,9;0,0091261
132516,3;0,009148094
132532,9;0,009127567
132550;0,009129032
132566,1;0,009120235
132582,8;0,009123167
132599,1;0,009130498
132615,7;0,009129032
132632,3;0,009146628
132648,8;0,009156892
132665,4;0,009186218
132682;0,009186218
132698,5;0,009181818
132715,5;0,009177419
132731,6;0,009190616
132748,2;0,009197948
132764,8;0,009197948
132781,3;0,009183285
132797,9;0,009217009
132815,2;0,009214076
132831,3;0,009196481
132847,6;0,009193549
132864,4;0,009192082
132880,8;0,009206745
132897,3;0,009189149
132913,9;0,009209678
132930,5;0,009184751
132947;0,009193549
132963,6;0,009187683
132980,3;0,009181818
132996,7;0,009181818
133013,7;0,009193549
133030,1;0,009203812
133046,7;0,009215543
133063;0,009214076
133079,5;0,009214076
133096,1;0,009214076
133112,7;0,009214076
133129,2;0,009206745
133146,1;0,009175953
133163,2;0,00913783
133178,9;0,009158358
133195,5;0,009140763
133212,1;0,009156892
133229;0,009151027
133245,6;0,009158358
133261,8;0,009143695
133278,4;0,009151027
133294,9;0,009171555
133311,5;0,009155425
133328;0,009155425
133344,7;0,009140763
133361,3;0,009151027
133377,8;0,009158358
133394,9;0,00913783
133410,9;0,009155425
133427,6;0,009156892
133444,1;0,009180352
133460,6;0,00920088
133477,1;0,009197948
133494,1;0,009209678
133510,3;0,00920088
133526,9;0,009206745
133543,4;0,009189149
133560;0,009186218
133576,5;0,009190616
133593,2;0,009199413
133609,7;0,009197948
133626,3;0,009199413
133642,8;0,009199413
133659,7;0,00920088
133676;0,009208212
133692,5;0,009195015
133709,1;0,009202346
133725,6;0,009202346
133742,2;0,009218475
133758,8;0,009218475
133775,5;0,009230206
133791,9;0,009250733
133808,7;0,009253666
133825;0,009268329
133841,6;0,009256599
133858,2;0,009241936
133874,8;0,009241936
133892;0,00920088
133907,9;0,00920088
133924,5;0,009192082
133941;0,009174487
133957,6;0,009165689
133974,2;0,009165689
133990,7;0,009162757
134007,3;0,009156892
134023,8;0,009197948
134040,4;0,009205279
134057,1;0,009209678
134073,6;0,009215543
134090,1;0,009215543
134107,5;0,009199413
134123,3;0,009199413
134140;0,009190616
134156,4;0,009189149
134172,9;0,009165689
134189,5;0,009109971
134206,1;0,009111437
134222,7;0,009117302
134239,2;0,009120235
134256,4;0,009124634
134272,7;0,00911437
134288,9;0,009111437
134305,5;0,009152493
134322;0,009140763
134338,6;0,009130498
134355,4;0,009130498
134371,8;0,009139297
134388,7;0,009139297
134404,9;0,009139297
134421,6;0,009134898
134438;0,009136364
134455;0,009151027
134471,2;0,009156892
134487,7;0,009140763
134504,8;0,009140763
134520,8;0,009139297
134537,4;0,009162757
134554;0,009162757
134570,6;0,009155425
134587,1;0,009165689
134603,9;0,009153959
134620,4;0,009162757
134636,9;0,009162757
134653,4;0,009146628
134670;0,009131965
134687;0,009134898
134703,1;0,009134898
134719,7;0,009136364
134736,2;0,009121701
134753,2;0,00911437
134769,3;0,009109971
134785,9;0,009096774
134802,6;0,009101173
134819;0,009101173
134835,6;0,009130498
134852,5;0,009124634
134869,3;0,009096774
134885,3;0,009096774
134901,9;0,0091261
134919,5;0,009131965
134936,1;0,009131965
134952,7;0,009096774
134970,2;0,009120235
134986;0,009140763
135002,4;0,009140763
135019;0,009158358
135035,5;0,009145161
135052,1;0,009127567
135068,6;0,009123167
135085,2;0,009115836
135101,8;0,009112904
135118,3;0,009112904
135134,9;0,009167155
135151,6;0,009187683
135168;0,009196481
135184,8;0,009187683
135201,3;0,009177419
135217,8;0,009151027
135234,8;0,009146628
135251,5;0,009151027
135268,1;0,009129032
135284,1;0,009139297
135300,6;0,009131965
135317,1;0,009145161
135333,7;0,009168622
135350,9;0,009186218
135367,4;0,009186218
135383,5;0,009197948
135400,1;0,009193549
135416,5;0,00920088
135434,2;0,009205279
135449,6;0,00920088
135466,2;0,009140763
135482,8;0,009142229
135499,6;0,009133431
135515,9;0,009133431
135532,7;0,009105572
135549;0,009105572
135565,6;0,009120235
135582,2;0,009092376
135598,7;0,009109971
135615,3;0,0091261
135631,9;0,009146628
135648,9;0,009146628
135665;0,009146628
135682;0,009139297
135698,5;0,00913783
135714,7;0,009139297
135731,3;0,009136364
135747,8;0,009096774
135764,4;0,009076246
135781,1;0,009071847
135797,5;0,009071847
135814,9;0,009039589
135830,7;0,009014663
135847,4;0,009014663
135863,9;0,009013196
135880,4;0,009029326
135896,9;0,009045455
135913,5;0,009032258
135932,3;0,009045455
135948,8;0,009045455
135965,9;0,009041056
135982,3;0,009035191
135998,5;0,009032258
136015,1;0,009011731
136031,9;0,009000001
136048,2;0,008995601
136064,9;0,00898827
136081,3;0,008983871
136097,9;0,008986804
136114,5;0,008986804
136131,1;0,008979472
136147,6;0,009005865
136164,5;0,009005865
136180,8;0,009017595
136197,3;0,009027859
136213,9;0,009010264
136230,5;0,009007332
136247,1;0,009017595
136263,6;0,009024926
136280,2;0,009032258
136296,7;0,009032258
136313,3;0,009043989
136329,9;0,009067449
136346,4;0,009077713
136363;0,009085044
136379,8;0,009098241
136396,1;0,009098241
136413,1;0,009127567
136429,3;0,009133431
136445,8;0,009108504
136462,4;0,009093842
136478,9;0,009093842
136496;0,00909824
136512,2;0,009107038
136528,7;0,009107038
136545,2;0,009096774
136561,9;0,009127567
136578,4;0,009134898
136594,9;0,009124634
136611,5;0,009112904
136628;0,00910264
136644,6;0,009109971
136661,2;0,009101173
136677,8;0,009099707
136694,3;0,009099707
136711;0,009095308
136727,5;0,009104106
136744;0,009104106
136760,8;0,009108504
136777,1;0,009130498
136794,1;0,0091261
136810,3;0,009140763
136826,8;0,009145161
136843,4;0,009124634
136860,9;0,009142229
136877;0,009142229
136893,1;0,009149561
136910,2;0,009158358
136926,7;0,009158358
136943,3;0,009164223
136960,4;0,009174487
136976,6;0,009174487
136993,5;0,009165689
137009,6;0,009173021
137026,1;0,009171555
137042,7;0,009175953
137059,3;0,009178886
137075,8;0,009159824
137092,6;0,009159824
137109;0,009177419
137125,5;0,009196481
137142,1;0,009178886
137158,7;0,009178886
137175,6;0,009187683
137191,8;0,009178886
137208,4;0,009193549
137224,9;0,009202346
137241,5;0,009228739
137258,1;0,009246334
137274,6;0,009250733
137291,2;0,009228739
137307,8;0,009230206
137324,4;0,009225806
137340,9;0,009228739
137357,5;0,009228739
137374;0,009218475
137390,6;0,009225806
137407,2;0,009208212
137423,7;0,009202346
137440,3;0,009202346
137456,8;0,009225806
137473,4;0,009218475
137490;0,009233138
137506,8;0,009241936
137523,1;0,00928739
137539,8;0,009274194
137556,5;0,009259531
137572,8;0,009259531
137589,4;0,009259531
137606;0,0092522
137623,4;0,009260997
137639,1;0,009221408
137656,3;0,009219942
137672,2;0,009233138
137688,8;0,00922434
137705,4;0,009228739
137721,9;0,009228739
137738,5;0,00922434
137755;0,009230206
137771,8;0,009246334
137788,2;0,009249267
137804,9;0,009253666
137822,2;0,009258064
137837,9;0,009268329
137854,7;0,009271261
137871,1;0,009240469
137887,9;0,009246334
137904,2;0,009222874
137920,7;0,009222874
137937,3;0,009215543
137954,4;0,009215543
137970,4;0,009215543
137987,5;0,009244869
138003,8;0,009234604
138020,1;0,009244869
138036,7;0,009241936
138053,3;0,009244869
138070;0,00926393
138086,4;0,009290323
138103;0,009281525
138119,5;0,009281525
138136,1;0,00931525
138152,7;0,009307918
138169,2;0,00931525
138185,8;0,009319648
138202,6;0,009319648
138219,3;0,009328446
138235,6;0,009328446
138252,4;0,009341642
138268,6;0,00936217
138285,6;0,00933871
138302,5;0,009316715
138318,3;0,009319648
138334,9;0,00932698
138351,5;0,00932698
138368,1;0,009293255
138387,8;0,009280059
138404,5;0,009274194
138420,9;0,009281525
138437,9;0,009269794
138454,2;0,009284457
138470,6;0,009284457
138487,8;0,009253666
138503,7;0,009234604
138520,6;0,009231672
138536,9;0,009218475
138553,4;0,009222874
138570;0,009195015
138586,6;0,009197948
138603,1;0,009197948
138620,1;0,009206745
138636,3;0,009209678
138652,8;0,009227273
138669,4;0,009237537
138686;0,009246334
138702,6;0,009259531
138719,3;0,009278593
138736,2;0,009259531
138752,3;0,009274194
138769,1;0,009269794
138785,4;0,009272727
138802;0,009272727
138818,5;0,009265396
138835,5;0,009284457
138851,8;0,009278593
138868,2;0,00928739
138885,6;0,009271261
138901,6;0,009221408
138918,5;0,009219942
138934,5;0,009205279
138951;0,009197948
138967,6;0,009195015
138984,2;0,009183285
139000,7;0,009199413
139017,6;0,009187683
139033,9;0,009205279
139050,5;0,009209678
139067;0,009206745
139083,6;0,009208212
139100,1;0,009206745
139116,7;0,009203812
139133,3;0,009189149
139149,8;0,009209678
139166,4;0,009196481
139183;0,009175953
139199,5;0,009162757
139216,1;0,009164223
139233,6;0,009131965
139249,5;0,009131965
139265,9;0,009124634
139282,4;0,009101173
139299,8;0,009099707
139315,6;0,009092376
139332,1;0,00908651
139348,9;0,009090909
139367,3;0,009092376
139381,8;0,009092376
139398,3;0,009082112
139415,1;0,00910264
139431,5;0,009083577
139448,8;0,009076246
139464,6;0,009092376
139481,3;0,009099707
139497,9;0,009099707
139514,3;0,009099707
139530,9;0,00909824
139547,4;0,00909824
139564;0,009085044
139580,6;0,009083577
139597,3;0,00907478
139613,9;0,00908651
139630,5;0,009107038
139647,1;0,009118768
139663,4;0,009121701
139680;0,009121701
139696,5;0,009120235
139713,1;0,009120235
139729,7;0,009107038
139746,3;0,009112904
139763;0,009127567
139779,4;0,009112904
139795,9;0,009136364
139812,5;0,009159824
139829,1;0,009152493
139845,6;0,009164223
139862,4;0,009165689
139878,8;0,009175953
139895,9;0,009174487
139911,9;0,009186218
139928,8;0,009186218
139945,5;0,009197948
139961,6;0,009180352
139978,2;0,009170088
139995,2;0,009159824
140011,3;0,009170088
140027,9;0,009178886
140044,5;0,009178886
140061;0,009187683
140077,6;0,009203812
140094,1;0,009197948
140110,7;0,009221408
140127,3;0,009221408
140144;0,009208212
140160,4;0,009208212
140177;0,009159824
140193,9;0,009146628
140210,1;0,009156892
140226,7;0,009170088
140243,3;0,009170088
140259,8;0,009180352
140276,4;0,009180352
140293;0,009180352
140309,6;0,009175953
140326,1;0,009192082
140342,8;0,009219942
140359,4;0,009218475
140376;0,009219942
140392,3;0,009206745
140408,9;0,009193549
140425,6;0,009197948
140442;0,00921261
140458,6;0,009225806
140475,2;0,009256599
140491,8;0,009268329
140508,3;0,009271261
140524,9;0,009266863
140541,6;0,009266863
140558;0,009266863
140574,6;0,009271261
140591,1;0,009282991
140607,7;0,009271261
140624,3;0,009271261
140640,8;0,009265396
140657,4;0,0092478
140674,2;0,009240469
140690,5;0,009278593
140707,5;0,009277126
140724,1;0,009262463
140740,3;0,009277126
140756,8;0,009262463
140773,4;0,009262463
140790;0,009262463
140807,1;0,009274194
140823,3;0,009268329
140839,6;0,0092522
140856,2;0,009271261
140872,8;0,009271261
140889,8;0,009281525
140905,9;0,009312317
140922,5;0,009312317
140939,3;0,009319648
140955,7;0,009309384
140972,2;0,009331378
140988,8;0,009340176
141005,3;0,009340176
141021,9;0,009340176
141038,4;0,009340176
141055,3;0,009341642
141071,6;0,009318182
141088,1;0,009318182
141104,8;0,009318182
141121,8;0,009300587
141137,8;0,009285924
141154,4;0,00928739
141171,6;0,009288857
141187,8;0,009269794
141204,1;0,009227273
141220,7;0,009243402
141237,3;0,00928739
141253,8;0,009277126
141270,4;0,009277126
141287,5;0,009282991
141303,5;0,009296188
141320,5;0,009307918
141336,6;0,00929912
141353,3;0,009290323
141369,9;0,009291789
141386,4;0,009290323
141402,9;0,009290323
141419,6;0,009291789
141436,4;0,009291789
141452,6;0,00927566
141469,2;0,009307918
141485,8;0,009258064
141502,5;0,00926393
141518,9;0,009234604
141535,5;0,00923607
141552;0,009228739
141568,6;0,009244869
141585,1;0,0092478
141601,7;0,009260997
141618,3;0,0092522
141634,8;0,009208212
141651,4;0,009208212
141668;0,009192082
141685,3;0,009189149
141701,4;0,009190616
141717,7;0,009217009
141734,2;0,009239003
141750,8;0,009209678
141767,8;0,009202346
141783,9;0,009202346
141800,5;0,009187683
141817,6;0,009180352
141833,6;0,009186218
141850,5;0,009183285
141866,8;0,009192082
141883,4;0,009184751
141899,9;0,009202346
141916,5;0,009208212
141933;0,009202346
141949,6;0,00921261
141966,2;0,009214076
141982,8;0,00922434
141999,3;0,009221408
142015,9;0,009221408
142032,4;0,009222874
142049;0,009222874
142065,6;0,00922434
142082,1;0,009206745
142098,7;0,009168622
142115,3;0,009134898
142131,8;0,00913783
142148,7;0,009145161
142165;0,009145161
142181,5;0,009155425
142198,4;0,009164223
142215,1;0,009142229
142231,6;0,009139297
142247,8;0,009136364
142264,6;0,009105572
142281,4;0,009107038
142297,8;0,009108504
142314,2;0,00911437
142330,9;0,00909824
142347,2;0,009099707
142364,3;0,009121701
142380,5;0,009123167
142396,9;0,009130498
142414;0,009124634
142430,6;0,009133431
142447,3;0,009127567
142463,7;0,009120235
142480,3;0,009108504
142496,8;0,009108504
142513,4;0,009115836
142530;0,009124634
142546,6;0,009136364
142563,1;0,009148094
142579,7;0,009134898
142596,3;0,009134898
142612,8;0,009134898
142629,5;0,009139297
142645,9;0,009158358
142662,5;0,009158358
142679,2;0,009171555
142695,6;0,009174487
142712,3;0,009174487
142728,8;0,009170088
142745,3;0,009136364
142762;0,009115836
142778,5;0,009093842
142795;0,009095308
142811,6;0,009083577
142828,2;0,009080646
142844,7;0,009080646
142861,4;0,009035191
142877,9;0,009039589
142894,6;0,009065983
142911;0,009065983
142927,5;0,00906305
142944,6;0,009080646
142960,7;0,009061583
142978;0,009083577
142993,8;0,009083577
143011;0,009096774
143027;0,009083577
143043,5;0,009087977
143060,1;0,009090909
143076,7;0,009090909
143093,4;0,009083577
143109,8;0,00908651
143126,4;0,009070382
143142,9;0,009068915
143159,5;0,009108504
143176,1;0,009123167
143192,6;0,009117302
143209,3;0,009092376
143225,8;0,009105572
143242,9;0,009117302
143259,5;0,009108504
143276;0,009123167
143292;0,009140763
143309;0,009153959
143325,2;0,009153959
143341,8;0,009153959
143358,3;0,009153959
143374,9;0,009186218
143396,5;0,009178886
143408;0,009195015
143424,7;0,009178886
143441,1;0,009151027
143457,7;0,009158358
143474,3;0,009159824
143490,8;0,009186218
143507,4;0,009218475
143524;0,009244869
143540,5;0,009243402
143557,5;0,009243402
143573,7;0,009253666
143590,2;0,009239003
143606,8;0,009231672
143623,5;0,009243402
143639,9;0,009278593
143656,7;0,009274194
143673,1;0,009268329
143689,6;0,009265396
143706,2;0,009259531
143723,2;0,009259531
143739,3;0,009266863
143755,9;0,009258064
143773,2;0,00926393
143789,1;0,009312317
143805,6;0,009312317
143822,2;0,009318182
143838,7;0,009316715
143855,3;0,009318182
143871,9;0,009329912
143888,4;0,009324047
143905;0,009325514
143922,2;0,009344575
143938,3;0,009344575
143955,1;0,009354839
143972;0,009354839
143987,8;0,009356305
144004,8;0,009363636
144021;0,009337244
144038,4;0,009322581
144054,9;0,009341642
144070,7;0,009341642
144087,3;0,009360704
144104,1;0,009395895
144120,9;0,009387097
144137;0,009398827
144153,5;0,009398827
144170,9;0,009423754
144186,6;0,009407625
144204,2;0,009410557
144219,8;0,009395895
144237,2;0,009382698
144253,3;0,009381232
144270;0,009406159
144286,1;0,009409091
144303,4;0,009426686
144319,2;0,009426686
144336,3;0,009444281
144352,3;0,009444281
144368,8;0,009419355
144385,4;0,009456011
144403;0,009435484
144418,6;0,00944868
144435,4;0,00944868
144451,7;0,009445748
144468,7;0,009469208
144485,1;0,009434017
144501,4;0,009451613
144518,6;0,009439883
144534,5;0,009438417
144551,1;0,009438417
144567,7;0,009447214
144584,5;0,00943695
144601,2;0,00943695
144617,4;0,009426686
144634,8;0,009429619
144650,5;0,009435484
144667,3;0,009414956
144683,6;0,00941349
144700,2;0,009409091
144716,8;0,00940176
144733,6;0,009426686
144749,9;0,009435484
144766,5;0,009431086
144783;0,009403226
144799,6;0,009417889
144816,2;0,009419355
144832,7;0,009442816
144849,6;0,009458944
144866,4;0,009470674
144882,4;0,009467742
144899,2;0,00943695
144915,6;0,009461877
144932,1;0,009460411
144948,7;0,009457478
144965,3;0,009457478
144981,8;0,00947654
144998,4;0,009472141
145015;0,009469208
145031,5;0,009469208
145048,1;0,009439883
145064,7;0,00942522
145081,2;0,009444281
145098,3;0,009434017
145114,3;0,00943695
145130,9;0,009414956
145147,5;0,009419355
145164,5;0,009426686
145180,7;0,009394429
145197,3;0,00941349
145213,8;0,009391496
145230,3;0,009382698
145247,3;0,0093739
145263,5;0,0093739
145280;0,009378299
145296,6;0,009368035
145313,2;0,009351906
145329,8;0,009341642
145346,3;0,009343109
145362,9;0,009340176
145379,4;0,00936217
145397,5;0,009366569
145412,5;0,009422287
145429,6;0,00942522
145445,7;0,00942522
145462,3;0,009431086
145479;0,009445748
145495,4;0,009422287
145512;0,009398827
145528,5;0,009398827
145545,3;0,009360704
145561,7;0,009347508
145578,2;0,009379766
145594,8;0,009388563
145611,6;0,009372435
145628,3;0,009368035
145644,5;0,00936217
145661,1;0,00936217
145677,6;0,009360704
145694,8;0,009359238
145710,8;0,009351906
145727,3;0,009348974
145744,2;0,009321115
145760,5;0,009321115
145777;0,009304985
145793,8;0,009294721
145810,2;0,009312317
145826,7;0,009312317
145843,3;0,009306452
145860,6;0,009307918
145876,4;0,009312317
145893;0,009312317
145909,6;0,009313784
145926,1;0,009291789
145942,7;0,009290323
145959,3;0,009268329
145976;0,009250733
145992,4;0,009240469
146009;0,009265396
146026,1;0,009265396
146042,2;0,009274194
146058,7;0,009249267
146075,2;0,009239003
146092;0,00923607
146108,4;0,009237537
146125,5;0,009221408
146141,6;0,00921261
146158,2;0,009234604
146174,6;0,009230206
146191,2;0,009250733
146207,8;0,009234604
146225;0,00922434
146240,9;0,009214076
146257,5;0,009217009
146274,4;0,009202346
146290,8;0,009186218
146307,2;0,009186218
146324,2;0,009165689
146340,4;0,009177419
146356,9;0,009183285
146373,5;0,009187683
146390;0,009177419
146406,6;0,009181818
146423,2;0,009193549
146439,7;0,009181818
146456,3;0,009187683
146472,8;0,009202346
146489,8;0,009211143
146506;0,00922434
146523,1;0,009215543
146539,1;0,009221408
146555,7;0,009233138
146572,2;0,009233138
146588,8;0,009262463
146605,7;0,009278593
146621,9;0,009278593
146638,9;0,009285924
146655,1;0,009249267
146671,6;0,009234604
146688,2;0,009243402
146704,8;0,009217009
146721,4;0,009208212
146737,9;0,009227273
146754,9;0,009234604
146771;0,009233138
146788;0,009258064
146805;0,009268329
146821;0,009281525
146837,3;0,009282991
146854;0,009268329
146870,4;0,009253666
146887,5;0,009253666
146903,6;0,009253666
146920,4;0,009246334
146936,7;0,009246334
146954,2;0,0092478
146970,3;0,009234604
146986,4;0,009241936
147003;0,009233138
147019,5;0,009221408
147036,3;0,009219942
147053;0,009218475
147069,3;0,0092478
147085,8;0,009253666
147102,4;0,009266863
147118,9;0,009250733
147135,6;0,009250733
147152,3;0,0092522
147168,6;0,0092522
147185,2;0,009246334
147202,3;0,009239003
147218,8;0,009249267
147235,4;0,009266863
147251,6;0,009274194
147268;0,009272727
147285;0,009260997
147301,2;0,009258064
147317,7;0,0092522
147334,3;0,009255132
147350,9;0,009250733
147367,4;0,009237537
147384,3;0,009249267
147405,3;0,009237537
147422,1;0,009244869
147438,4;0,0092478
147455,2;0,0092522
147471,7;0,00923607
147488,1;0,009227273
147504,9;0,009244869
147521,2;0,009244869
147538;0,009285924
147554,4;0,009278593
147571;0,009271261
147587,5;0,009269794
147604,7;0,009268329
147620,8;0,009285924
147637,3;0,009272727
147654,6;0,009268329
147670,5;0,009244869
147686,9;0,009258064
147703,7;0,00926393
147720,8;0,00926393
147737,3;0,009271261
147753,7;0,009260997
147769,7;0,009272727
147786,6;0,009277126
147802,9;0,009277126
147819,5;0,009266863
147836,1;0,0092522
147852,6;0,009268329
147869,1;0,009262463
147885,7;0,009290323
147902,3;0,009277126
147918,8;0,009277126
147935,4;0,009302053
147952;0,009294721
147968,5;0,009294721
147985,4;0,009318182
148001,7;0,009328446
148018,2;0,009319648
148034,8;0,009306452
148051,4;0,009306452
148068;0,009343109
148085,1;0,009343109
148101,1;0,009359238
148117,6;0,009359238
148134,2;0,009363636
148151;0,009356305
148167,3;0,009368035
148183,9;0,009368035
148200,5;0,009356305
148217,6;0,009343109
148234;0,009343109
148250,2;0,009387097
148266,7;0,009417889
148283,3;0,009431086
148300,2;0,009431086
148317;0,009432551
148333;0,009423754
148354;0,009404692
148370,7;0,009400293
148387,3;0,009382698
148403,8;0,009382698
148420,4;0,009395895
148437;0,009366569
148453,6;0,009390029
148470;0,009390029
148486,6;0,009387097
148503,1;0,0093739
148520,4;0,009332845
148536,4;0,009335778
148552,8;0,009335778
148569,5;0,009307918
148586,3;0,009313784
148602,5;0,009313784
148619,1;0,009277126
148635,7;0,009319648
148652,3;0,009334311
148669,4;0,009366569
148685,4;0,009347508
148702,3;0,009363636
148719,4;0,009376833
148735,1;0,009387097
148751,6;0,009387097
148768,5;0,00938563
148784,8;0,009379766
148801,3;0,009363636
148817,9;0,009347508
148834,5;0,009356305
148851;0,009375366
148867,6;0,009404692
148884,2;0,009404692
148900,7;0,009407625
148917,3;0,009400293
148933,9;0,009381232
148950,4;0,00940176
148967;0,00939736
148983,6;0,009406159
149000,4;0,009406159
149016,8;0,00941349
149033,3;0,00941349
149049,8;0,009438417
149066,4;0,009438417
149083;0,009434017
149100;0,009434017
149116,1;0,009434017
149132,7;0,009461877
149149,6;0,009486804
149166;0,009504399
149182,9;0,009505865
149198,9;0,009501467
149215,5;0,009501467
149232,5;0,009501467
149248,6;0,009505865
149265,2;0,009505865
149283,9;0,009521995
149298,3;0,009561583
149314,9;0,009555719
149331,7;0,009555719
149348;0,009557185
149364,6;0,009542522
149381,2;0,009539589
149397,7;0,009536657
149414,3;0,009520528
149430,9;0,009508798
149447,4;0,009516129
149464;0,009538123
149480,6;0,009541056
149497,1;0,009552786
149514,5;0,009589443
149530,3;0,009582112
149546,8;0,009585044
149563,7;0,009585044
149580,5;0,009595308
149596,5;0,00957478
149613,2;0,009541056
149629,7;0,009536657
149646,2;0,009558652
149662,8;0,009579179
149679,4;0,009604106
149695,9;0,009599707
149712,5;0,009599707
149729,1;0,00960264
149746,1;0,00959824
149762,2;0,00959824
149778,8;0,009580646
149795,8;0,009577713
149811,9;0,009618768
149828,5;0,009621701
149845;0,009620234
149861,6;0,009607038
149878,3;0,009585044
149894,7;0,00959824
149911,9;0,009601173
149927,9;0,009609971
149944,4;0,009611437
149961;0,009612903
149977,6;0,009601173
149994,1;0,009601173
150011;0,009590909
150027,3;0,009595308
150044,4;0,009596774
150060,4;0,009604106
150077;0,009604106
150093,5;0,009608504
150110,2;0,009592376
150126,7;0,009609971
150143,6;0,009601173
150160,2;0,009593842
150176,4;0,009595308
150192,9;0,009592376
150209,5;0,00961437
150229;0,009595308
150245,6;0,00956305
150262,2;0,009548387
150278,8;0,009548387
150295,3;0,009552786
150312,2;0,009529326
150328,8;0,009536657
150345;0,009541056
150361,6;0,009541056
150378,7;0,009545455
150394,7;0,009543989
150411,3;0,009554252
150427,8;0,009573314
150445,2;0,009573314
150461;0,009570382
150477,5;0,009529326
150494,5;0,009523461
150510,8;0,009564516
150527,4;0,009565983
150544;0,009573314
150560,3;0,009579179
150576,9;0,00960264
150593,5;0,009634897
150610,4;0,009653959
150626,6;0,009643695
150643,2;0,009640763
150660,1;0,009642228
150676,5;0,009642228
150693;0,009645161
150709,6;0,009655425
150726;0,00964956
150743,1;0,009636364
150759,2;0,009636364
150775,8;0,00961437
150792,3;0,009633431
150809,2;0,009633431
150826,1;0,009633431
150842;0,009631965
150858,5;0,009618768
150875,2;0,009607038
150892,1;0,009582112
150908,3;0,009582112
150924,8;0,009582112
150942;0,009593842
150958;0,009592376
150974,9;0,009596774
150991,1;0,009599707
151007,6;0,009599707
151024,8;0,009615836
151040,8;0,009615836
151057,6;0,009623167
151074,1;0,009634897
151090,5;0,009640763
151107,5;0,009640763
151123,6;0,009661291
151140,2;0,009633431
151156,8;0,009633431
151173,3;0,009630498
151190,1;0,00963783
151206,5;0,009639297
151223,5;0,009636364
151239,6;0,009640763
151256,2;0,009627566
151272,8;0,009624634
151289,3;0,009607038
151305,9;0,009595308
151322,5;0,00959824
151339;0,009620234
151355,7;0,009639297
151372,7;0,009651027
151388,7;0,009640763
151405,3;0,009640763
151421,9;0,009662757
151438,8;0,009662757
151455;0,009652493
151471,5;0,009629033
151488,1;0,009596774
151504,8;0,009583578
151521,3;0,00959824
151538,1;0,009582112
151554,5;0,009599707
151571,6;0,00958651
151588,1;0,009627566
151604,2;0,009646628
151621,3;0,009655425
151637,2;0,009655425
151653,9;0,009652493
151670,3;0,009652493
151687,2;0,009664223
151703,5;0,00963783
151720;0,0096261
151736,6;0,009659824
151753,2;0,009646628
151770,2;0,009646628
151787,1;0,009645161
151802,9;0,009655425
151819,4;0,009670088
151836;0,009670088
151852,5;0,009664223
151869,1;0,009674487
151885,7;0,009693549
151902,3;0,009686218
151918,8;0,009705279
151935,4;0,009703812
151952;0,009697948
151968,5;0,009703812
151985,4;0,009715543
152001,6;0,009715543
152018,2;0,009746335
152034,8;0,009746335
152051,6;0,009743402
152067,9;0,009731672
152084,6;0,009730206
152104;0,009725806
152120,5;0,009725806
152137,1;0,009749267
152154,1;0,009758065
152170,2;0,009781525
152186,8;0,009794721
152203,4;0,009807918
152219,9;0,009821114
152236,5;0,009821114
152253;0,009822581
152269,6;0,009821114
152286,2;0,009821114
152302,8;0,009818182
152319,7;0,009835777
152335,9;0,009825514
152352,5;0,00982698
152369;0,009813783
152385,6;0,009807918
152402,8;0,009777126
152418,7;0,009760997
152435,3;0,009765396
152451,9;0,009765396
152468,4;0,009765396
152485,3;0,00976393
152501,6;0,009772727
152518,1;0,009768329
152535;0,009746335
152551,3;0,009740469
152568,1;0,0097478
152584,4;0,009746335
152601,4;0,009714076
152617,5;0,009686218
152634,3;0,009661291
152650,7;0,009651027
152667,2;0,009643695
152684;0,009636364
152701;0,009642228
152717;0,009642228
152733,5;0,009607038
152750,1;0,009608504
152766,6;0,009617303
152783,2;0,009612903
152799,8;0,009612903
152816,5;0,009611437
152832,9;0,00961437
152849,9;0,00959824
152866,1;0,009601173
152882,6;0,00961437
152899,8;0,009634897
152915,7;0,009653959
152932,3;0,009653959
152948,9;0,009653959
152965,4;0,009661291
152982,5;0,009668622
152998,5;0,009648094
153015,1;0,009642228
153032;0,009646628
153049,8;0,009636364
153066,5;0,009648094
153082,9;0,009645161
153099,5;0,009636364
153116;0,009630498
153132,6;0,009612903
153149,2;0,009607038
153166;0,009631965
153182,3;0,009634897
153198,9;0,009621701
153215,6;0,0096261
153232,1;0,009620234
153249;0,009620234
153265,4;0,009630498
153281,7;0,009640763
153298,3;0,009642228
153314,8;0,009634897
153332;0,009633431
153348;0,009620234
153364,5;0,009618768
153381,1;0,009633431
153397,9;0,009634897
153414,3;0,009633431
153430,8;0,009671554
153447,4;0,009680352
153463,9;0,009695015
153480,5;0,009702346
153497,1;0,009718475
153514,1;0,009711144
153530,3;0,009711144
153546,8;0,009706745
153563,3;0,009706745
153579,9;0,00971261
153596,7;0,009725806
153613,3;0,009727273
153630,1;0,009706745
153646,2;0,009693549
153662,7;0,009696481
153679,3;0,009711144
153696,1;0,009708212
153712,4;0,009730206
153729;0,009718475
153745,6;0,00973607
153762,5;0,00973607
153778,9;0,009705279
153795,3;0,009675954
153811,8;0,009662757
153828,5;0,009646628
153845,3;0,00963783
153861,6;0,009608504
153878,1;0,009601173
153894,7;0,009604106
153911,6;0,009587977
153927,8;0,00958651
153944,4;0,009596774
153961,3;0,009609971
153977,5;0,009615836
153994,4;0,009611437
154010,6;0,009611437
154027,2;0,009612903
154043,8;0,009599707
154060,5;0,009618768
154076,9;0,009608504
154093,5;0,009608504
154110;0,009612903
154126,6;0,00960264
154143,2;0,00959824
154159,7;0,009601173
154176,3;0,009601173
154192,9;0,009585044
154209,4;0,009589443
154226,2;0,00959824
154242,9;0,009593842
154259,1;0,00960264
154275,7;0,009607038
154292,3;0,009612903
154308,8;0,009612903
154325,4;0,009623167
154342,7;0,009623167
154358,5;0,009634897
154375,1;0,009653959
154391,7;0,009719942
154408,6;0,009743402
154425;0,009733138
154441,4;0,009733138
154457,9;0,009750733
154474,5;0,009791789
154491,3;0,009774194
154507,8;0,009774194
154524,2;0,00977566
154540,8;0,009746335
154557,5;0,009759531
154573,9;0,009733138
154590,5;0,009740469
154607;0,009778593
154623,6;0,009777126
154640,3;0,009777126
154656,8;0,009802053
154673,7;0,009807918
154690,3;0,009802053
154706,5;0,009810851
154723;0,00983871
154739,6;0,009844575
154756,2;0,009834311
154773;0,009835777
154789,3;0,009813783
154805,8;0,009846041
154822,4;0,009841642
154839,3;0,009841642
154855,5;0,009847508
154872,4;0,009847508
154888,7;0,009847508
154906;0,009869502
154921,8;0,009843108
154938,8;0,009848974
154955,8;0,009860704
154972,3;0,009863636
154988,1;0,009846041
155004,6;0,009872434
155021,2;0,009872434
155038,2;0,009916423
155054,3;0,009922287
155070,9;0,009907625
155087,5;0,009922287
155104;0,00995308
155120,6;0,00995308
155137,2;0,009957478
155153,7;0,009985337
155170,3;0,01001613
155186,9;0,01002493
155203,5;0,01002493
155220,1;0,01003519
155236,6;0,01003666
155253,2;0,01004252
155269,7;0,01004985
155286,4;0,01003519
155302,8;0,01003519
155319,6;0,01003519
155336;0,01004252
155352,5;0,01004399
155369,1;0,01004545
155386,3;0,01004545
155402,6;0,01002493
155418,8;0,01003372
155435,9;0,01002053
155451,9;0,01002199
155468,5;0,01003812
155485,2;0,01003666
155501,9;0,01001466
155518,3;0,01001026
155534,9;0,01003519
155551,7;0,01008944
155567,9;0,01006745
155584,7;0,01006158
155601,1;0,01004839
155617,6;0,01004839
155634,2;0,01004985
155650,7;0,01007331
155667,3;0,01007478
155683,9;0,01006745
155700,7;0,01008798
155717;0,01007918
155733,6;0,01007185
155750,2;0,01007185
155767,4;0,01014809
155783,4;0,01015103
155799,8;0,01015103
155816,7;0,01015543
155833;0,01018622
155849,5;0,01020821
155866,1;0,01020821
155882,7;0,01021848
155899,3;0,01021114
155915,8;0,01021848
155932,6;0,0102478
155948,9;0,0102478
155965,7;0,01024633
155983,2;0,01024633
156000,8;0,01025953
156016,4;0,0102522
156033;0,0102346
156049,7;0,01022581
156066;0,01022581
156082,6;0,01021848
156099,5;0,0102346
156115,7;0,0102434
156132,3;0,01025367
156148,9;0,0102478
156166;0,0102478
156182;0,01025806
156198,8;0,010239
156215,1;0,0102346
156231,9;0,0102346
156248,3;0,01022727
156264,8;0,01021701
156281,4;0,01021701
156298;0,01018182
156314,5;0,01019795
156331,3;0,01019941
156347,7;0,01019941
156364,3;0,01020528
156380,8;0,01019501
156397,4;0,01014223
156414,4;0,01015103
156430,5;0,0101305
156447,1;0,01013636
156463,6;0,0101305
156480,6;0,0101085
156497,4;0,01010264
156513,3;0,0101085
156529,9;0,01011437
156546,5;0,01014516
156563;0,01014516
156579,6;0,01018328
156596,3;0,01016862
156612,7;0,01016862
156629,8;0,01016276
156646;0,01016129
156662,4;0,01015249
156679,1;0,01015543
156695,6;0,01014076
156712,2;0,01015543
156728,7;0,01017155
156745,3;0,01016716
156761,8;0,01018475
156778,4;0,01018475
156795;0,01018475
156811,5;0,01020821
156828,2;0,01021261
156844,7;0,01019208
156861,2;0,01019208
156877,8;0,01019208
156894,4;0,01019795
156911,8;0,01018915
156927,5;0,01018035
156944,1;0,01020381
156960,6;0,01020381
156977,7;0,01020235
156993,8;0,01019648
157010,3;0,01019648
157026,9;0,01017009
157044,1;0,01013197
157060,5;0,0101305
157076,6;0,01013783
157093,2;0,01011437
157109,7;0,01009091
157126,3;0,01009971
157142,9;0,01007185
157159,4;0,01006745
157176;0,01003812
157192,6;0,01001173
157209,1;0,01003959
157225,9;0,01003666
157242,3;0,01001613
157258,8;0,01002053
157275,4;0,01002053
157292;0,01000587
157308,7;0,01001466
157325,1;0,01000587
157342;0,009995601
157358,3;0,009986804
157374,8;0,00997654
157391,4;0,009985337
157407,9;0,009985337
157425,2;0,009991203
157441,1;0,009983871
157457,7;0,009920822
157474,2;0,009853372
157491;0,00983871
157507,3;0,009819648
157523,9;0,009813783
157540,5;0,009791789
157557;0,009781525
157573,6;0,00978739
157590,2;0,009790323
157606,8;0,009796188
157623,6;0,009782991
157639,9;0,009777126
157656,5;0,009772727
157673,4;0,00977566
157689,6;0,009784457
157707;0,009765396
157722,7;0,009790323
157739,3;0,009791789
157756,4;0,009778593
157772,4;0,009741936
157789;0,0097522
157806,1;0,009768329
157822,1;0,009772727
157839;0,009759531
157855,2;0,009728739
157871,8;0,009718475
157888,4;0,009717009
157904,9;0,009695015
157922,4;0,009692082
157938,1;0,009689149
157955,4;0,009681818
157971,2;0,009683285
157995,3;0,009653959
158009,1;0,009643695
158025,7;0,009639297
158042,2;0,009639297
158058,8;0,009658358
158075,6;0,009656891
158092,2;0,009634897
158108,6;0,009615836
158125,1;0,009611437
158142,1;0,009609971
158158,2;0,009609971
158174,8;0,009604106
158191,3;0,009607038
158207,9;0,00959824
158225,3;0,009621701
158241;0,009643695
158258,1;0,009652493
158274,4;0,00964956
158291,3;0,009678885
158307,3;0,009678885
158324;0,009659824
158340,4;0,009655425
158357;0,009648094
158373,6;0,009621701
158390,1;0,009624634
158406,7;0,009629033
158423,3;0,009629033
158439,8;0,00961437
158456,9;0,009623167
158473;0,009605572
158489,5;0,009621701
158506,1;0,009636364
158522,6;0,009612903
158539,2;0,009590909
158556;0,009590909
158572,3;0,009558652
158588,9;0,009549853
158605,5;0,009576246
158622,1;0,009571848
158638,6;0,009571848
158655,2;0,009529326
158672,2;0,009529326
158688,3;0,009539589
158704,9;0,009548387
158721,5;0,009549853
158738;0,009530792
158754,6;0,009541056
158771,2;0,009538123
158787,7;0,009516129
158804,3;0,009516129
158820,8;0,009498534
158837,4;0,009501467
158854,2;0,009539589
158870,5;0,009543989
158887,1;0,009543989
158904,2;0,009529326
158920,4;0,009543989
158936,8;0,009532258
158953,4;0,009511731
158969,9;0,009513197
158986,5;0,009521995
159003,1;0,009536657
159019,7;0,009554252
159036,2;0,009554252
159052,8;0,009552786
159069,3;0,009558652
159085,9;0,009585044
159102,5;0,009599707
159119;0,00959824
159135,6;0,009609971
159152,6;0,009599707
159168,8;0,009599707
159185,7;0,009604106
159201,9;0,00959824
159218,6;0,009573314
159235;0,009576246
159251,6;0,00957478
159268,1;0,009571848
159285;0,009583578
159301,3;0,009620234
159318,1;0,009609971
159334,4;0,009587977
159351;0,009587977
159368,5;0,00957478
159384,1;0,009592376
159400,7;0,009605572
159417,3;0,009605572
159433,8;0,009646628
159450,4;0,009664223
159467,7;0,009683285
159483,5;0,009678885
159500,1;0,009693549
159516,6;0,009695015
159533,2;0,009696481
159549,8;0,009692082
159566,3;0,009681818
159582,9;0,009670088
159599,5;0,009656891
159616;0,009656891
159632,9;0,009670088
159649,4;0,009683285
159665,7;0,009693549
159682,3;0,009684751
159699,2;0,009684751
159715,5;0,009681818
159732;0,009659824
159748,6;0,009643695
159765,4;0,009643695
159782;0,009655425
159798,3;0,009665689
159815,2;0,009674487
159831,4;0,009692082
159848;0,00970088
159864,5;0,009727273
159881,1;0,00972434
159898;0,009697948
159914,3;0,009697948
159930,8;0,009697948
159947,6;0,009718475
159964;0,009718475
159980,5;0,009697948
159997,1;0,009689149
160013,8;0,009709678
160030,5;0,009756599
160046,8;0,009765396
160063,6;0,009762463
160080,2;0,009768329
160096,7;0,0097522
160113;0,009753666
160129,6;0,009756599
160146,2;0,009772727
160162,8;0,009772727
160179,3;0,00978739
160195,9;0,00978739
160212,5;0,009813783
160229;0,009784457
160245,6;0,009778593
160262,1;0,009777126
160278,7;0,00976393
160295,3;0,009750733
160311,8;0,009777126
160328,4;0,009768329
160345,4;0,009802053
160361,5;0,009794721
160378,1;0,009802053
160394,7;0,009802053
160411,6;0,009806451
160427,9;0,009825514
160444,4;0,00985044
160461;0,009843108
160477,5;0,009843108
160494,1;0,009846041
160510,7;0,009857771
160527,2;0,009869502
160543,8;0,009895895
160560,3;0,009904692
160576,9;0,009888563
160593,5;0,009882698
160610;0,009885631
160626,8;0,009885631
160643,2;0,009876833
160659,8;0,009926686
160676,8;0,009951613
160693,6;0,009935484
160709,6;0,009939883
160726;0,009934017
160742,6;0,009907625
160759,4;0,009907625
160775,8;0,009903226
160792,3;0,009882698
160808,9;0,009882698
160825,5;0,009872434
160842,8;0,009876833
160858,5;0,009844575
160875,1;0,009834311
160891,7;0,009832845
160908,3;0,009825514
160925;0,009818182
160941,5;0,009806451
160958;0,009806451
160974,5;0,009804985
160991,1;0,009810851
161007,8;0,009813783
161024,2;0,009829912
161041,2;0,009831378
161057,4;0,009835777
161073,9;0,009840176
161090,5;0,009796188
161107,1;0,009750733
161123,6;0,009749267
161140,2;0,009758065
161156,8;0,009758065
161173,3;0,00977566
161189,9;0,00977566
161206,8;0,009774194
161223,3;0,009769795
161239,8;0,009777126
161256,2;0,009777126
161272,7;0,009778593
161289,3;0,009778593
161306,5;0,009788857
161322,6;0,009800587
161339;0,009818182
161355,5;0,009831378
161372,1;0,009831378
161388,9;0,009819648
161405,5;0,009824047
161421,8;0,009824047
161438,4;0,00982698
161455;0,009822581
161471,5;0,009818182
161488,5;0,009807918
161504,9;0,009804985
161521,2;0,009816715
161537,8;0,009806451
161554,4;0,009812317
161570,9;0,009846041
161587,8;0,009870968
161604;0,009900293
161620,6;0,009900293
161637,5;0,009904692
161653,8;0,009888563
161670,3;0,009875366
161687,6;0,009875366
161703,5;0,009891496
161720;0,009885631
161736,6;0,009895895
161753,3;0,00991349
161769,9;0,009919355
161786,5;0,009887097
161803,5;0,009879765
161819,7;0,009866569
161836;0,009848974
161852,7;0,009848974
161869,4;0,00979912
161885,7;0,00979912
161902,5;0,00978739
161918,9;0,009794721
161935,7;0,009829912
161952;0,009835777
161968,5;0,009835777
161985,7;0,009832845
162001,6;0,009837244
162018,5;0,009806451
162035;0,009772727
162051,7;0,009760997
162067,9;0,009774194
162084,5;0,009784457
162101;0,009782991
162117,6;0,009782991
162134,2;0,009756599
162151,3;0,009759531
162167,6;0,00976393
162184,2;0,009746335
162200,5;0,009755132
162217;0,009755132
162233,6;0,009766863
162250,2;0,009753666
162266,7;0,009793255
162283,6;0,009802053
162299,8;0,009812317
162316,8;0,009812317
162333;0,009793255
162349,9;0,009780059
162366,1;0,009800587
162383,2;0,009804985
162399,3;0,00980352
162415,9;0,00977566
162432,4;0,009804985
162448,9;0,009804985
162465,5;0,009781525
162482,1;0,009791789
162499;0,009740469
162515,2;0,0097478
162531,8;0,009749267
162548,4;0,009749267
162564,9;0,009756599
162582;0,0097478
162598;0,00979912
162615,3;0,009800587
162631,2;0,009784457
162647,8;0,009784457
162664,4;0,0097478
162681,1;0,00973607
162697,8;0,009744869
162714,6;0,00973607
162730,9;0,009766863
162747,1;0,009762463
162763,7;0,009768329
162780,6;0,009769795
162796,8;0,00978739
162813,4;0,009804985
162830,1;0,009840176
162846,7;0,009843108
162866,1;0,009834311
162879,7;0,009824047
162896,3;0,009831378
162912,8;0,009834311
162929,4;0,009834311
162946,4;0,009851906
162963,3;0,009843108
162979,1;0,009825514
162995,7;0,009824047
163012,2;0,009806451
163028,8;0,009788857
163045,7;0,009790323
163061,9;0,009780059
163079,1;0,009780059
163095,4;0,009807918
163111,6;0,009818182
163128,2;0,009834311
163145;0,009812317
163161,3;0,009812317
163177,9;0,00981525
163194,4;0,009809384
163211;0,009825514
163227,8;0,009857771
163244,2;0,009828446
163260,7;0,009834311
163277,3;0,009821114
163293,9;0,009835777
163310,4;0,00982698
163327,5;0,00982698
163343,5;0,009828446
163360,1;0,009813783
163376,7;0,009813783
163393,5;0,009818182
163409,8;0,009788857
163426,5;0,009802053
163443;0,009793255
163459,6;0,009782991
163476,1;0,00980352
163492,7;0,009806451
163509,3;0,009806451
163525,8;0,00983871
163542,4;0,00985044
163559,2;0,009840176
163575,5;0,009840176
163592,4;0,00983871
163608,9;0,009831378
163625,2;0,009841642
163641,8;0,009841642
163658,4;0,009841642
163675,3;0,009840176
163691,5;0,009841642
163708,4;0,009848974
163724,6;0,009824047
163741,5;0,009819648
163757,8;0,009835777
163774,3;0,009840176
163790,9;0,009837244
163807,4;0,009851906
163824;0,009851906
163840,6;0,009851906
163857,1;0,009876833
163875,1;0,009931086
163890,3;0,009931086
163906,8;0,00992522
163923,4;0,009957478
163940;0,009939883
163956,5;0,009941349
163973,1;0,009960411
163990,5;0,009973607
164006,2;0,009973607
164022,8;0,01000587
164039,4;0,01002639
164055,9;0,01004545
164072,5;0,01005279
164089;0,01005279
164105,6;0,01006745
164122,4;0,01008504
164138,8;0,0101085
164155,4;0,01010704
164171,9;0,01009384
164188,5;0,01007625
164205;0,01008798
164221,6;0,01007185
164238,1;0,01003666
164254,9;0,01003666
164271,7;0,01003519
164287,8;0,01004106
164305,3;0,01001613
164321;0,01001613
164337,7;0,01002786
164354,1;0,01004692
164370,7;0,01000293
164387,3;0,00998827
164403,8;0,009997068
164420,4;0,009989737
164437;0,00998827
164454;0,009997068
164470,1;0,009997068
164486,7;0,009991203
164503,2;0,01004106
164520,1;0,01002199
164536,3;0,01002786
164553;0,01005279
164569,5;0,01007038
164586,3;0,01004545
164602,6;0,01008064
164619,2;0,01008798
164635,8;0,01009824
164652,3;0,01010704
164669,1;0,01010997
164685,7;0,01011437
164702;0,01011584
164718,6;0,01013636
164735,2;0,01013343
164751,7;0,0101349
164768,3;0,0101349
164785,3;0,01017449
164801,4;0,01012757
164818;0,01012317
164834,5;0,01014223
164851,3;0,01015836
164869,5;0,01017742
164884,3;0,01017449
164900,8;0,01015249
164917,7;0,01015689
164933,9;0,01015689
164951;0,01019062
164967,1;0,01020235
164983,6;0,01022141
165000,2;0,01022141
165017,2;0,01025073
165033,4;0,01024633
165049,9;0,01024633
165066,5;0,01023754
165083;0,01023754
165099,6;0,01023167
165116,2;0,01023167
165132,8;0,01024487
165149,5;0,01026979
165165,9;0,01026393
165182,5;0,01025073
165199;0,01025953
165215,6;0,01024487
165232,5;0,01022874
165248,7;0,01023607
165266;0,01026979
165281,9;0,0102566
165298,4;0,01025806
165315;0,01027859
165331,5;0,01027566
165348,2;0,01027419
165364,8;0,01029472
165381,3;0,01028006
165397,8;0,01028006
165414,4;0,01028006
165431;0,01026833
165448;0,0102566
165464,2;0,01027713
165480,7;0,01027126
165497,2;0,01024194
165513,9;0,01021994
165530,4;0,01019941
165546,9;0,01019941
165564,1;0,01021408
165580,2;0,01022141
165596,6;0,010239
165613,4;0,01026686
165629,8;0,01028299
165646,3;0,01029472
165662,9;0,01029472
165679,6;0,01029765
165696;0,01030352
165712,6;0,01029619
165729,3;0,01028886
165745,7;0,01030352
165763,2;0,01033724
165779,5;0,01035337
165795,4;0,01037537
165812;0,0103783
165828,5;0,0103783
165845,1;0,01037097
165866,1;0,0103651
165878,3;0,01037243
165895,1;0,0103651
165911,4;0,01037243
165928;0,01037243
165944,5;0,01036657
165961,1;0,01036657
165977,7;0,01034164
165994,2;0,01032698
166010,8;0,01032698
166027,3;0,01030352
166043,9;0,01028739
166060,5;0,01028446
166077,5;0,01027126
166094;0,01025953
166110,2;0,01022581
166126,8;0,01022581
166143,3;0,01021408
166160;0,01020235
166176,5;0,01021848
166193,1;0,01022727
166209,6;0,01020528
166226,9;0,01019795
166242,7;0,01022434
166259,3;0,01023607
166275,9;0,01022727
166292,7;0,01022727
166309;0,01024487
166325,8;0,01025513
166342,1;0,01022874
166358,9;0,01022874
166375,3;0,01023167
166392;0,01023167
166408,4;0,01024194
166425,8;0,01026686
166441,7;0,0102478
166458,1;0,010261
166474,7;0,0102522
166491,7;0,01024927
166507,9;0,01025513
166524,5;0,01027419
166541;0,01027566
166557,5;0,0102478
166574,2;0,01024927
166591,3;0,01024194
166607,3;0,01022727
166623,8;0,01023314
166640,3;0,01023314
166656,9;0,01023167
166673,5;0,01021114
166690;0,01021114
166706,6;0,01021848
166723,2;0,01021701
166739,7;0,01019941
166756,3;0,01019062
166772,9;0,01019648
166789,8;0,01019062
166806,1;0,01018915
166822,6;0,01019795
166839,3;0,01020235
166856;0,01017742
166872,3;0,01017742
166889,3;0,01018328
166905,4;0,01018328
166922,2;0,01020381
166939;0,01017742
166955,1;0,01016862
166971,7;0,01017302
166988,2;0,01017302
167004,8;0,01018622
167021,4;0,01018622
167037,9;0,01018475
167054,5;0,01017449
167071;0,01018622
167087,6;0,01020381
167104,8;0,01020821
167120,8;0,01020821
167137,9;0,01020088
167154,2;0,01017889
167170,5;0,01018768
167187;0,01018768
167203,6;0,01018768
167220,7;0,01024194
167237,1;0,01024194
167253,3;0,01021994
167269,9;0,01019795
167286,4;0,01019941
167303;0,01020235
167320;0,01021114
167336,5;0,01021408
167352,8;0,01023607
167369,5;0,01020821
167385,8;0,01019941
167402,6;0,01019941
167418,9;0,01019941
167435,5;0,01021261
167452,1;0,01023314
167468,6;0,01024633
167485,8;0,01026833
167501,8;0,01029472
167518,4;0,01029326
167535;0,01029326
167551,8;0,01030645
167568;0,01028739
167584,6;0,01028006
167601,2;0,01028006
167618;0,01025367
167634,3;0,0102478
167650,9;0,0102478
167667,5;0,0102434
167684,1;0,01026393
167701;0,01024047
