73801,45;0,007718475
73818,01;0,007718475
73834,58;0,00772434
73851,55;0,007711144
73867,72;0,007734604
73886,04;0,00772434
73902,74;0,007718475
73925,38;0,007719941
73942,03;0,007730206
73958,7;0,007727273
73975,09;0,007737537
73991,8;0,007743402
74008,22;0,007743402
74024,79;0,007739003
74041,38;0,0077522
74058,27;0,007749267
74080,55;0,007758065
74097,24;0,007758065
74113,68;0,007758065
74130,25;0,007759531
74147,03;0,00777566
74163,44;0,007749267
74179,94;0,007743402
74196,78;0,007743402
74213,07;0,007750733
74235,99;0,007774194
74252,85;0,007791789
74269,29;0,007794722
74285,69;0,007794722
74302,26;0,007771261
74318,83;0,007771261
74335,41;0,007739003
74352,06;0,007756598
74368,64;0,007758065
74390,57;0,007778592
74407,14;0,007788857
74423,71;0,007816716
74440,27;0,007796188
74456,85;0,007796188
74473,91;0,007802053
74489,98;0,007782992
74506,55;0,007778592
74523,11;0,007788857
74544,33;0,007810851
74560,9;0,007824047
74577,46;0,007824047
74594,77;0,007825513
74610,59;0,007868036
74627,26;0,00783871
74643,73;0,007841642
74660,3;0,007841642
74676,87;0,007818182
74698,3;0,007835777
74714,87;0,007807918
74732,17;0,007807918
74748;0,007806452
74764,56;0,007818182
74781,35;0,007818182
74797,7;0,007828446
74814,27;0,007821115
74830,85;0,007821115
74854,85;0,007812317
74871,42;0,007825513
74887,98;0,00786217
74904,55;0,00786217
74921,12;0,007848973
74937,68;0,007841642
74954,37;0,007843109
74970,82;0,007829912
74987,39;0,007803519
75009,13;0,007803519
75025,8;0,007831379
75042,27;0,007866569
75058,82;0,007872434
75075,63;0,007887097
75092,72;0,007870967
75109,13;0,007882698
75125,09;0,007878299
75141,66;0,007876833
75165,34;0,00790176
75182,17;0,00790176
75198,55;0,007897361
75215,05;0,007897361
75231,61;0,007876833
75248,91;0,007894428
75264,75;0,007866569
75281,32;0,007863636
75297,9;0,007876833
75320,09;0,007900293
75336,96;0,00789003
75353,23;0,007878299
75369,87;0,007895894
75389,88;0,007888563
75402,92;0,007881232
75419,49;0,00788563
75436,05;0,007900293
75453,28;0,007922287
75473,33;0,007897361
75489,9;0,007876833
75506,55;0,007897361
75523,02;0,00788563
75539,59;0,00790176
75556,16;0,007923754
75572,8;0,007929618
75589,3;0,007931085
75605,87;0,007923754
75626,42;0,007919355
75643,02;0,007919355
75659,55;0,007866569
75676,13;0,007854839
75692,69;0,007856305
75709,26;0,007859237
75726,3;0,007851906
75742,38;0,007854839
75758,95;0,007854839
75781,39;0,007821115
75798,13;0,007856305
75814,52;0,007859237
75814,52;0,007857772
75834,52;0,007868036
75851,1;0,007854839
75867,7;0,007857772
75884,23;0,007857772
75900,8;0,007866569
75917,7;0,007868036
75933,93;0,007868036
75950,75;0,00786217
75967,05;0,007884164
75989,33;0,007882698
76005,9;0,007882698
76022,68;0,00789003
76039,08;0,007919355
76055,59;0,007916423
76072,32;0,007906158
76088,92;0,007923754
76105,45;0,007935484
76121,87;0,007923754
76143,3;0,007916423
76159,88;0,007916423
76176,69;0,007895894
76193;0,007912024
76209,57;0,007916423
76226,13;0,00790176
76242,7;0,007897361
76259,27;0,007894428
76275,84;0,007870967
76297,59;0,00786217
76314,17;0,00786217
76330,73;0,007844575
76347,3;0,007853373
76363,86;0,007848973
76380,47;0,007863636
76397,18;0,007853373
76413,58;0,007825513
76430,13;0,007825513
76452,35;0,007818182
76468,92;0,007794722
76488,55;0,007796188
76505,7;0,007822581
76521,7;0,007813783
76538,26;0,007844575
76554,91;0,007835777
76571,4;0,007844575
76588,57;0,007837243
76610,88;0,007857772
76627,51;0,0078739
76644,15;0,007872434
76660,59;0,0078739
76677,16;0,00789003
76693,73;0,007859237
76710,32;0,007876833
76726,85;0,007875367
76743,42;0,007875367
76764,51;0,007879766
76781,09;0,007878299
76797,79;0,007884164
76814,22;0,007881232
76830,79;0,00791349
76847,35;0,007910557
76863,98;0,007914956
76880,58;0,007916423
76897,05;0,007894428
76919,01;0,007894428
76935,58;0,00790176
76952,15;0,007912024
76969,15;0,00789003
76985,27;0,007884164
77002,3;0,007894428
77018,41;0,007904693
77034,98;0,00790176
77051,73;0,007919355
77075,54;0,007917888
77092,11;0,007926687
77108,89;0,007926687
77125,67;0,00791349
77141,8;0,00791349
77158,37;0,007934018
77175,36;0,007923754
77191,8;0,007923754
77208,08;0,00790176
77229,7;0,007892962
77246,27;0,007892962
77264,91;0,007863636
77281,48;0,007870967
77298,05;0,007879766
77315,16;0,007875367
77331,34;0,007878299
77347,76;0,007878299
77364,32;0,007917888
77386,16;0,007954545
77402,73;0,007980938
77419,77;0,007973607
77435,95;0,007945748
77452,43;0,007939883
77468,99;0,007939883
77485,83;0,007942815
77502,13;0,007957478
77518,7;0,007956012
77540,06;0,007944281
77556,63;0,007958944
77573,21;0,007956012
77589,76;0,007951613
77606,33;0,007947214
77622,89;0,007947214
77639,46;0,007931085
77656,16;0,007979472
77672,59;0,007986804
77694,48;0,007988269
77711,5;0,00793695
77727,63;0,007942815
77744,18;0,007957478
77760,75;0,007944281
77777,98;0,007957478
77793,88;0,00793695
77810,45;0,007922287
77827,01;0,007922287
77849,71;0,007904693
77866,28;0,007917888
77882,84;0,007919355
77899,65;0,007894428
77915,98;0,007897361
77932,55;0,007865103
77949,34;0,007863636
77965,67;0,007857772
77982,25;0,007859237
78015,12;0,007826979
78031,68;0,007804986
78048,25;0,007804986
78064,99;0,007872434
78081,38;0,007870967
78097,95;0,007854839
78114,68;0,007854839
78131,08;0,007826979
78147,64;0,007828446
78169,78;0,007826979
78186,89;0,007837243
78202,92;0,007828446
78219,48;0,007851906
78236,1;0,00785044
78252,62;0,007840176
78269,19;0,007853373
78285,75;0,00786217
78302,32;0,007878299
78325,03;0,007892962
78341,62;0,007904693
78358,55;0,007888563
78374,73;0,007878299
78391,52;0,007878299
78407,97;0,007887097
78424,92;0,007895894
78441,21;0,007909091
78457,62;0,007919355
78480,79;0,007917888
78497,35;0,007922287
78514,24;0,007926687
78530,48;0,007926687
78547,05;0,007926687
78563,78;0,007917888
78580,2;0,007917888
78596,84;0,007910557
78613,46;0,007898827
78635,53;0,007895894
78652,1;0,007891496
78669,02;0,007903226
78686,19;0,007856305
78701,8;0,007860704
78718,36;0,007875367
78735,7;0,007857772
78754,72;0,007809384
78771,3;0,007800587
78794,55;0,007782992
78811,12;0,007794722
78827,68;0,007807918
78844,25;0,007796188
78860,82;0,007791789
78877,58;0,007778592
78894,23;0,007772727
78910,55;0,007765396
78927,09;0,007746334
78948,96;0,0077522
78966,1;0,007758065
78982,62;0,007771261
78998,87;0,007777126
79015,23;0,007747801
79031,8;0,00776393
79048,92;0,007765396
79065,05;0,007765396
79081,59;0,007753666
79102,41;0,007741936
79118,98;0,007741936
79136,13;0,007758065
79152,12;0,007746335
79168,68;0,007743402
79185,24;0,007749267
79201,81;0,007758065
79218,38;0,007778592
79234,95;0,007785924
79257,22;0,007777126
79273,78;0,007774194
79290,35;0,007737537
79307,04;0,007715543
79324,34;0,007741936
79340,37;0,007768329
79357,02;0,0077522
79373,19;0,007728739
79389,75;0,007728739
79413,3;0,00772434
79429,95;0,007728739
79446,44;0,007706745
79463,18;0,007706745
79479,57;0,007696481
79502,63;0,00772434
79515,59;0,007733138
79532,36;0,007733138
79549,13;0,0077522
79572,3;0,007785924
79588,88;0,007782992
79605,45;0,00778739
79622,01;0,007797654
79638,77;0,007759531
79655,14;0,007731671
79671,71;0,007706745
79688,28;0,007715543
79705,37;0,007709677
79729,8;0,007690616
79746,68;0,007690616
79762,94;0,007692082
79779,51;0,007696481
79796,07;0,007705279
79812,65;0,007709677
79829,21;0,007717009
79845,78;0,007683285
79862,8;0,007667155
79885,11;0,007656892
79901,79;0,007667155
79918,43;0,007651026
79935,66;0,007656892
79951,38;0,007646628
79967,95;0,007665689
79984,52;0,007686217
80001,08;0,007674487
80017,65;0,007662757
80040,06;0,007639296
80056,63;0,007629032
80073,42;0,007623167
80090,2;0,007623167
80106,35;0,007609971
80122,9;0,007596774
80139,47;0,007601173
80156,04;0,007609971
80172,6;0,007607038
80196,8;0,007634897
80213,38;0,007636364
80229,94;0,007640763
80246,5;0,007686217
80264,36;0,007696481
80280,93;0,007706745
80297,49;0,007662757
80314,06;0,007662757
80330,84;0,007651026
80353,76;0,00766129
80370,33;0,00766129
80386,89;0,00767302
80403,78;0,00767302
80420,14;0,00768915
80436,73;0,007686217
80453,16;0,007728739
80469,86;0,007730206
80486,35;0,007717009
80510,72;0,007714076
80527,29;0,00770088
80544,09;0,007683285
80560,58;0,007708211
80577,18;0,007705279
80593,56;0,007721408
80610,5;0,007708211
80626,7;0,007714076
80643,26;0,007728739
80664,19;0,007731671
80680,9;0,007733138
80697,33;0,007740469
80714,09;0,007709677
80730,45;0,00770088
80747,04;0,007715543
80763,59;0,007725806
80780,43;0,007725806
80796,73;0,007733138
80819,38;0,007736071
80836,2;0,00770088
80852,66;0,007693549
80869,07;0,007702346
80885,64;0,00771261
80902,2;0,007744868
80918,77;0,007774194
80935,34;0,007781525
80952,06;0,007769795
80974,72;0,007762463
80991,28;0,007765396
81011,7;0,007749267
81024,43;0,007758065
81040,98;0,007727273
81057,56;0,00772434
81074,12;0,007699414
81090,68;0,007703812
81107,25;0,007702346
81130,21;0,00770088
81146,78;0,007697947
81163,34;0,007718475
81180,05;0,007728739
81196,48;0,007753666
81213,05;0,007753666
81229,66;0,007741936
81246,27;0,007741936
81262,77;0,007731671
81284,93;0,007785924
81301,56;0,007769795
81318,06;0,007756598
81335,03;0,007758065
81351,26;0,007741936
81367,76;0,007741936
81384,33;0,007756598
81400,89;0,007730206
81417,46;0,007744868
81440,2;0,007777126
81456,77;0,007766862
81473,34;0,007758065
81490,48;0,00772434
81506,63;0,007725806
81523,03;0,007719941
81539,6;0,007703812
81556,64;0,007680352
81572,74;0,007684751
81595,42;0,007699414
81612,65;0,007664223
81628,55;0,00768915
81645,13;0,007699414
81661,95;0,007702346
81678,83;0,007706745
81694,83;0,007706745
81711,7;0,007703812
81727,96;0,007703812
81750,74;0,007719941
81773,95;0,007737537
81786,72;0,007731671
81804,19;0,007746334
81820,39;0,007755132
81836,42;0,007749267
81852,99;0,007749267
81869,95;0,007771261
81886,13;0,007771261
81906,18;0,007780059
81922,74;0,007794722
81939,31;0,007785924
81955,94;0,007784457
81972,45;0,007784457
81989,02;0,007803519
82005,59;0,007806452
82022,15;0,007782992
82039,05;0,007782992
82061,65;0,007843109
82078,22;0,007843109
82094,79;0,007832845
82111,35;0,0078739
82127,96;0,007860704
82144,48;0,007869502
82161,05;0,007869502
82177,62;0,007875367
82194,18;0,007837243
82217,34;0,007819648
82233,9;0,007837243
82250,48;0,007782992
82267,07;0,007782992
82283,62;0,007785924
82300,31;0,007793255
82316,74;0,007790323
82333,31;0,007790323
82349,87;0,007788857
82373,9;0,007750733
82390,55;0,007743402
82407,04;0,0077522
82423,82;0,0077522
82440,49;0,007759531
82456,73;0,007746334
82473,3;0,007746334
82490,5;0,007719941
82506,43;0,007714076
82538,69;0,007744868
82555,25;0,007740469
82571,82;0,007740469
82588,38;0,007711144
82605,06;0,007703812
82621,52;0,007718475
82638,09;0,007722874
82654,66;0,007722874
82671,22;0,007696481
82695,07;0,00768915
82711,66;0,007690616
82728,48;0,007714076
82744,77;0,007719941
82761,34;0,00768915
82778,17;0,00768915
82794,47;0,00770088
82811,03;0,007668622
82827,61;0,007695015
82851,42;0,007695015
82868,07;0,007722874
82911,97;0,007674487
82928,55;0,007668622
82945,77;0,007684751
82961,68;0,007684751
82978,24;0,007680352
83001,41;0,007670088
83017,98;0,007664223
83034,55;0,007675953
83051,12;0,007693549
83067,68;0,007711144
83084,25;0,00770088
83100,82;0,007711144
83117,55;0,007736071
83133,95;0,007731671
83155,88;0,007731671
83172,45;0,007733138
83189,02;0,007718475
83206,12;0,007699414
83225,58;0,007719941
83242,15;0,007737537
83258,71;0,007734604
83275,8;0,007681818
83291,84;0,007668622
83315,15;0,007686217
83331,98;0,007665689
83348,28;0,00767302
83365,05;0,007667155
83381,41;0,007667155
83397,98;0,007684751
83415,41;0,00764956
83431,98;0,007645161
83448,55;0,007662757
83470,41;0,007659824
83487,3;0,007727273
83503,55;0,007740469
83520,12;0,007778592
83536,68;0,007778592
83553,24;0,007762463
83569,92;0,0077522
83586,39;0,0077522
83602,95;0,007728739
83623,39;0,007727273
83640,58;0,007758065
83656,68;0,007756598
83673,09;0,007743402
83689,66;0,007765396
83706,23;0,00777566
83722,8;0,007784457
83739,37;0,007784457
83755,93;0,007725806
83779,12;0,007715543
83795,69;0,007706745
83812,7;0,00770088
83828,82;0,007692082
83845,77;0,007699414
83862,16;0,007699414
83878,85;0,007684751
83895,08;0,007706745
83911,77;0,007714076
83934,9;0,007739003
83955,56;0,0077522
83972,57;0,007721408
83988,7;0,007708211
84005,27;0,007708211
84021,84;0,007706745
84038,44;0,007692082
84054,96;0,007681818
84071,52;0,007643695
84095,52;0,007642229
84112,14;0,007634897
84129,02;0,007601173
84145,22;0,007601173
84161,78;0,007599707
84178,55;0,007580645
84195,15;0,007583578
84211,66;0,007592375
84228,06;0,007592375
84248,55;0,00759824
84265,2;0,007599707
84281,71;0,007607038
84298,39;0,007609971
84314,83;0,007609971
84331,4;0,007608505
84348,05;0,007659824
84364,52;0,007662757
84381,09;0,007640763
84403,87;0,007659824
84420,44;0,007642229
84437,01;0,007653959
84453,73;0,007662757
84470,55;0,007662757
84486,95;0,007681818
84503,27;0,007674487
84519,84;0,00767742
84536,45;0,007664223
84557,7;0,007671555
84574,27;0,007680352
84590,86;0,007680352
84607,53;0,007718475
84623,97;0,007718475
84640,57;0,007734604
84657,1;0,00776393
84673,66;0,007756598
84690,23;0,007780059
84722,49;0,007803519
84739,13;0,007802053
84755,63;0,007818182
84772,2;0,007818182
84788,76;0,00785044
84805,83;0,00786217
84821,89;0,007869502
84838,6;0,007851906
84855,02;0,007851906
84879,06;0,007834311
84895,63;0,007826979
84912,2;0,007812317
84928,76;0,007812317
84945,41;0,007829912
84962,32;0,007837243
84978,46;0,007831379
84995,06;0,007834311
85011,81;0,007859237
85040,66;0,007865103
85057,23;0,007869502
85073,79;0,0078739
85090,67;0,007878299
85107,07;0,007878299
85123,5;0,007856305
85140,35;0,007856305
85156,63;0,007876833
85173,19;0,007853373
85199,19;0,007878299
85215,99;0,00786217
85232,63;0,00786217
85249,13;0,007844575
85265,7;0,007846042
85282,27;0,007851906
85298,83;0,007837243
85315,46;0,007846042
85332,01;0,007851906
85357,02;0,007835777
85373,59;0,007835777
85390,26;0,007835777
85406,91;0,007841642
85423,57;0,007869502
85440,05;0,007865103
85456,61;0,007872434
85473,18;0,007860704
85489,75;0,007870967
85509,71;0,007870967
85526,29;0,007875367
85542,84;0,00785044
85559,41;0,007846042
85575,98;0,007866569
85592,58;0,007881232
85609,12;0,007900293
85625,68;0,007917888
85642,24;0,007897361
85664,18;0,007903226
85680,8;0,007904693
85697,35;0,007900293
85714,16;0,007891496
85730,45;0,007909091
85747,01;0,007939883
85763,58;0,007928153
85780,62;0,007929618
85796,71;0,007945748
85818,82;0,007941349
85835,39;0,007947214
85851,95;0,007939883
85868,57;0,007903226
85885,6;0,007903226
85901,66;0,007920821
85918,22;0,007919355
85934,93;0,007909091
85951,35;0,00791349
85981,69;0,007964809
85998,55;0,007980939
86015,17;0,007978006
86031,74;0,007994135
86048,31;0,008021994
86065,19;0,008021994
86081,55;0,008017596
86098,03;0,007997068
86114,58;0,007992669
86145,27;0,008024927
86161,84;0,008030792
86178,41;0,008030792
86195,73;0,008046921
86211,54;0,008089443
86228,1;0,00808651
86244,94;0,008073314
86261,23;0,008032259
86277,8;0,008032259
86304,03;0,008029326
86324,77;0,008036657
86341,33;0,008048387
86358,11;0,008032259
86374,47;0,008041056
86391,04;0,008041056
86407,78;0,007997068
86424,16;0,008021994
86440,73;0,007972141
86462,34;0,007964809
86478,94;0,007963344
86495,48;0,007997068
86512,04;0,007997068
86528,6;0,007972141
86545,66;0,008020528
86561,73;0,008021994
86578,3;0,007988269
86594,95;0,007950147
86617,15;0,007916423
86633,72;0,007916423
86650,34;0,007904693
86666,85;0,007907624
86683,7;0,007914956
86699,98;0,007909091
86716,55;0,00791349
86733,12;0,007895894
86750,48;0,00790176
86771,11;0,00790176
86787,68;0,007900293
86804,51;0,007875367
86820,81;0,007875367
86837,38;0,007891496
86853,95;0,007882698
86873,53;0,007887097
86887,08;0,007869502
86903,65;0,007875367
86928,58;0,007868036
86948,14;0,007881232
87281,47;0,007794722
87298,25;0,007772727
87314,61;0,007772727
87331,18;0,007785924
87347,74;0,00778739
87364,31;0,007822581
87380,88;0,007768329
87397,44;0,007719941
87414,01;0,007728739
87430,58;0,007702346
87447,64;0,007706745
87463,7;0,007715543
87480,28;0,007715543
87496,84;0,007730206
87513,53;0,007755132
87529,98;0,007740469
87546,54;0,007740469
87563,11;0,007736071
87579,67;0,007705279
87596,24;0,007702346
87612,8;0,007684751
87629,38;0,007684751
87645,95;0,00772434
87662,51;0,007717009
87679,1;0,007758065
87695,91;0,007760997
87712,85;0,007760997
87728,77;0,007727273
87745,34;0,007727273
87761,91;0,007780059
87778,48;0,007753666
87795,05;0,007709677
87811,61;0,007706745
87828,41;0,007705279
87844,74;0,007705279
87861,31;0,007708211
87878,72;0,007697947
87894,54;0,007706745
87911,26;0,007702346
87927,57;0,007711144
87944,15;0,007711144
87961,01;0,007708211
87977,27;0,007708211
87994,24;0,00771261
88010,41;0,007680352
88026,98;0,007667155
88043,54;0,007671555
88060,11;0,007684751
88076,67;0,007670088
88093,27;0,007665689
88109,81;0,007652493
88126,38;0,00766129
88142,95;0,007681818
88159,51;0,007674487
88176,08;0,007665689
88193,23;0,007645161
88209,2;0,007655425
88225,77;0,007645161
88242,95;0,007651026
88258,92;0,007631965
88275,48;0,007671555
88292,06;0,00768915
88308,61;0,00768915
88325,17;0,007684751
88342,08;0,007684751
88358,32;0,007702346
88375,41;0,007702346
88392,3;0,007696481
88408,21;0,007706745
88424,58;0,007715543
88441,14;0,007714076
88457,77;0,007706745
88474,27;0,007697947
88490,84;0,007684751
88507,43;0,007655425
88523,98;0,007653959
88540,54;0,007648094
88557,11;0,00764956
88573,68;0,00764956
88590,24;0,0076261
88606,91;0,007623167
88623,38;0,007645161
88639,94;0,007655425
88656,52;0,007630499
88673,6;0,007609971
88689,68;0,007633431
88706,34;0,007602639
88722,8;0,0076261
88739,34;0,007630499
88755,94;0,007646628
88772,59;0,007646628
88789,06;0,00763783
88805,61;0,007634897
88822,41;0,007634897
88842,65;0,007664223
88855,31;0,007667155
88871,88;0,007662757
88889,09;0,007706745
88905,02;0,007690616
88921,58;0,007684751
88938,16;0,007684751
88954,72;0,007670088
88971,47;0,007683285
88987,85;0,007680352
89004,41;0,007696481
89020,98;0,007696481
89038,08;0,007678886
89054,16;0,007705279
89070,69;0,007705279
89087,41;0,007717009
89103,82;0,007719941
89120,45;0,007711144
89136,94;0,007717009
89153,51;0,007715543
89170,38;0,007722874
89187,11;0,007736071
89203,21;0,007733138
89219,78;0,007741936
89236,34;0,007741936
89252,91;0,007756598
89269,88;0,007749267
89286,04;0,007760997
89302,61;0,007760997
89319,17;0,007760997
89335,74;0,007749267
89352,36;0,007750733
89368,88;0,00777566
89385,46;0,007784457
89402,01;0,007806452
89418,58;0,00783871
89435,14;0,007834311
89451,7;0,00783871
89468,38;0,007840176
89484,93;0,007822581
89501,41;0,007822581
89517,98;0,007829912
89534,63;0,007829912
89551,11;0,007853373
89567,67;0,007853373
89584,27;0,007870967
89600,8;0,007868036
89617,38;0,007859237
89634,25;0,00786217
89650,51;0,007846042
89667,08;0,00783871
89683,64;0,007800587
89700,21;0,007800587
89717,14;0,007793255
89733,34;0,007806452
89750;0,007790323
89766,47;0,007765396
89783,3;0,007778592
89799,77;0,007782992
89816,22;0,007788857
89833,37;0,007815249
89849,31;0,007824047
89865,88;0,007824047
89882,45;0,007835777
89899,01;0,007832845
89915,63;0,007816716
89932,14;0,007843109
89948,71;0,007834311
89966,09;0,007825513
89981,84;0,007834311
89998,41;0,007851906
90015,23;0,007851906
90031,54;0,007863636
90048,11;0,007875367
90064,67;0,007895894
90081,23;0,007912024
90098,44;0,00792522
90114,38;0,007920821
90131,02;0,007934018
90147,51;0,00790176
90164,08;0,007917888
90180,71;0,007916423
90197,21;0,007926687
90213,9;0,007941349
90230,47;0,007941349
90246,91;0,007951613
90263,48;0,008001466
90280,2;0,007941349
90296,61;0,007934018
90313,18;0,007934018
90329,74;0,007917888
90346,3;0,007895894
90363,06;0,007912024
90379,44;0,007920821
90396,16;0,007928153
90412,58;0,007906158
90429,14;0,007906158
90445,95;0,00793695
90462,31;0,007960411
90479,47;0,007963344
90495,55;0,007944281
90512,05;0,007944281
90528,54;0,00793695
90545,16;0,00792522
90561,68;0,007934018
90578,24;0,007956012
90594,81;0,00798827
90611,38;0,007969208
90628,09;0,007934018
90644,79;0,007920821
90661,07;0,007920821
90678,41;0,007932551
90694,37;0,007931085
90710,77;0,007926687
90727,34;0,007898827
90745,8;0,00789003
90760,64;0,00788563
90777,04;0,00788563
90793,78;0,007903226
90810,17;0,007876833
90826,74;0,007854839
90843,3;0,007844575
90860,02;0,007844575
90876,57;0,007831379
90893,01;0,007819648
90909,61;0,007821115
90926,26;0,007818182
90942,71;0,007866569
90959,32;0,00788563
90975,84;0,007866569
90992,41;0,007870967
91008,97;0,007875367
91025,55;0,007879766
91042,11;0,00785044
91058,68;0,007846042
91075,53;0,007826979
91091,81;0,007832845
91108,56;0,007853373
91125,27;0,007816716
91141,51;0,007816716
91158,13;0,007803519
91174,64;0,007797654
91191,21;0,00778739
91208,29;0,007796188
91224,34;0,007782992
91240,91;0,007782992
91257,48;0,007711144
91274,27;0,007693549
91290,61;0,00768915
91307,17;0,007699414
91324,06;0,007702346
91340,31;0,007703812
91357,18;0,007683285
91373,45;0,007695015
91390,01;0,007695015
91406,62;0,007664223
91423,38;0,007659824
91439,71;0,007662757
91456,27;0,007651026
91472,84;0,007651026
91489,46;0,007655425
91506,55;0,007671555
91522,55;0,007675953
91539,39;0,007670088
91555,67;0,007646628
91572,34;0,007652493
91588,91;0,007652493
91605,38;0,007648094
91621,95;0,007664223
91639,05;0,007670088
91655,09;0,007655425
91671,66;0,007670088
91693,33;0,007699414
91704,78;0,007696481
91722,05;0,00770088
91737,91;0,00770088
91754,48;0,007693549
91771,23;0,007743402
91787,6;0,007743402
91804,55;0,007737537
91820,77;0,007744868
91837,52;0,007728739
91853,88;0,007728739
91870,45;0,00771261
91888,01;0,007709677
91903,57;0,007733138
91920,38;0,007733138
91936,7;0,007737537
91953,28;0,007762463
91969,84;0,007777126
91986,41;0,007769795
92002,98;0,007769795
92020,04;0,007739003
92036,11;0,007733138
92052,67;0,007722874
92069,43;0,007722874
92085,8;0,007705279
92102,38;0,007734604
92118,98;0,007725806
92135,51;0,007737537
92152,08;0,007737537
92168,64;0,007780059
92185,21;0,007778592
92201,77;0,00778739
92218,34;0,007794722
92234,91;0,007794722
92251,68;0,007806452
92268,39;0,007826979
92284,71;0,007859237
92301,18;0,007857772
92317,8;0,007829912
92334,31;0,007821115
92350,88;0,007837243
92367,84;0,007846042
92384,01;0,007863636
92400,57;0,007888563
92417,15;0,007892962
92433,88;0,007891496
92450,28;0,007879766
92466,84;0,007870967
92483,55;0,007854839
92499,98;0,007860704
92516,54;0,007869502
92533,2;0,007878299
92549,67;0,007878299
92566,34;0,007868036
92582,81;0,00783871
92599,66;0,007826979
92616,15;0,007853373
92632,51;0,007853373
92651,14;0,007865103
92665,88;0,007878299
92682,21;0,007895894
92698,77;0,007895894
92715,34;0,007884164
92731,91;0,007891496
92749,09;0,007934018
92765,09;0,00792522
92781,65;0,007866569
92798,17;0,007878299
92815,16;0,007895894
92831,3;0,00791349
92848,22;0,007914956
92864,44;0,007914956
92881,02;0,007898827
92897,58;0,007884164
92914,41;0,007916423
92930,72;0,007888563
92947,28;0,007887097
92963,85;0,00788563
92980,48;0,007894428
92997,55;0,007904693
93013,84;0,007892962
93030,11;0,007897361
93046,95;0,007891496
93063,41;0,007900293
93079,81;0,007909091
93096,38;0,007917888
93113,06;0,007923754
93129,51;0,007929618
93146,07;0,007941349
93162,95;0,007906158
93179,43;0,00790176
93195,8;0,00790176
93212,34;0,007870967
93228,91;0,007881232
93245,48;0,007914956
93262,47;0,007919355
93278,62;0,007939883
93295,17;0,00793695
93311,74;0,007939883
93328,3;0,007950147
93345,62;0,007980938
93361,84;0,007972141
93378,01;0,007979472
93394,68;0,007980938
93411,14;0,007998534
93428,13;0,007991202
93444,27;0,007994135
93460,84;0,007967742
93477,82;0,007986804
93493,98;0,007961877
93510,55;0,007970675
93527,11;0,007972141
93543,7;0,007983871
93560,24;0,007976539
93577,04;0,008005865
93593,38;0,008005865
93611,92;0,008007332
93626,51;0,007997068
93643,07;0,008020528
93659,65;0,00803959
93676,54;0,00803959
93693,58;0,008030792
93709,73;0,008046921
93726,46;0,008036657
93742,48;0,008036657
93759,63;0,008036657
93775,61;0,008033725
93792,17;0,008002933
93809,07;0,008002933
93825,73;0,007995602
93841,88;0,008016129
93858,45;0,008016129
93875,01;0,008019062
93891,73;0,008013196
93908,17;0,007979472
93925,23;0,007976539
93941,88;0,007951613
93958,35;0,007939883
93974,41;0,007961877
93991,83;0,007961877
94007,55;0,007944281
94024,94;0,007939883
94040,68;0,007951613
94057,3;0,007954545
94074,09;0,007954545
94090,38;0,007919355
94106,94;0,007897361
94123,94;0,007932551
94140,8;0,007947214
94156,8;0,007929618
94173,22;0,00791349
94190;0,00790176
94206,78;0,00788563
94222,91;0,007853373
94239,99;0,007819648
94256,54;0,007809384
94273,09;0,007809384
94289,77;0,00776393
94305,76;0,00776393
94322,32;0,007809384
94339,65;0,007806452
94355,52;0,007806452
94372,06;0,007815249
94388,59;0,007824047
94405,2;0,007828446
94421,97;0,007844575
94438,29;0,007832845
94454,95;0,007821115
94472,32;0,007821115
94488,05;0,007816716
94505,13;0,007860704
94521,62;0,007870967
94538,11;0,007875367
94554,26;0,007879766
94570,8;0,0078739
94587,38;0,007900293
94604,18;0,007870967
94620,51;0,007878299
94637,49;0,007881232
94653,64;0,007903226
94670,39;0,007869502
94686,79;0,007869502
94704,12;0,007868036
94719,91;0,007865103
94736,48;0,007888563
94753,05;0,007878299
94769,61;0,007878299
94786,18;0,007888563
94802,88;0,00790176
94819,48;0,007872434
94836,13;0,007872434
94852,53;0,007863636
94869,2;0,007869502
94885,58;0,007926687
94902,15;0,007932551
94918,71;0,007932551
94935,77;0,007907624
94951,84;0,007894428
94969,23;0,007879766
94985,3;0,007879766
95001,54;0,007875367
95018,4;0,007875367
95035;0,00786217
95051,24;0,007870967
95068,58;0,007859237
95084,67;0,00786217
95100,97;0,00786217
95118,29;0,007870967
95134,08;0,007878299
95150,64;0,00790176
95167,2;0,00792522
95183,77;0,00792522
95200,64;0,007970675
95216,91;0,007954545
95233,48;0,007969208
95250,29;0,007973607
95266,61;0,007975074
95283,21;0,007980938
95299,74;0,007980938
95316,3;0,007980938
95332,95;0,007994135
95349,45;0,007953079
95366,02;0,007950147
95382,58;0,007950147
95399,14;0,007989736
95415,71;0,007985338
95432,38;0,008001466
95448,84;0,00803519
95465,87;0,008058651
95481,98;0,008041056
95498,54;0,008038123
95515,24;0,008045455
95531,98;0,008045455
95548,24;0,008029326
95565,32;0,00802346
95581,38;0,008043989
95597,94;0,008055719
95614,51;0,008049853
95631,07;0,008049853
95647,65;0,008032259
95664,21;0,008021994
95680,78;0,007978006
95698,05;0,007953079
95713,91;0,007966275
95730,48;0,007994135
95747,04;0,007978006
95763,73;0,007953079
95780,77;0,007964809
95797,16;0,007964809
95813,31;0,007980938
95829,88;0,007989736
95847,07;0,007989736
95863,01;0,008
95879,62;0,00801173
95896,4;0,00801173
95913,15;0,008007332
95929,27;0,008021994
95945,84;0,00803519
95962,8;0,008030792
95978,98;0,008014663
95995,55;0,008013196
96012,11;0,008027859
96028,7;0,008021994
96045,59;0,008010264
96061,85;0,008010264
96078,63;0,008045455
96094,94;0,008065983
96111,51;0,008048387
96128,08;0,008048387
96144,65;0,008020528
96161,21;0,008016129
96177,77;0,008030792
96194,34;0,008038123
96211,22;0,00802346
96227,48;0,008080645
96244,04;0,008080645
96260,66;0,00808651
96277,18;0,008083578
96294,22;0,008083578
96310,31;0,008093841
96326,88;0,008111437
96343,45;0,00809091
96360,36;0,008083578
96376,74;0,008082111
96393,18;0,008036657
96409,96;0,008036657
96426,59;0,008029326
96442,84;0,008032259
96459,76;0,008032259
96475,98;0,008046921
96492,54;0,008046921
96509,11;0,008032259
96526,23;0,007982405
96542,33;0,007964809
96558,8;0,007985338
96575,77;0,007985338
96592;0,007973607
96609,02;0,007979472
96625,12;0,007972141
96641,77;0,007982405
96658,21;0,007975074
96674,77;0,007985338
96691,72;0,007985338
96708,42;0,007995602
96724,47;0,007973607
96741,05;0,007973607
96757,61;0,007970675
96774,38;0,007982405
96790,74;0,007986804
96807,32;0,007954545
96823,89;0,007966275
96840,45;0,007969208
96857,02;0,007964809
96873,59;0,007964809
96890,16;0,007970675
96906,72;0,007951613
96923,29;0,007969208
96939,85;0,007969208
96956,42;0,008010264
96973,76;0,008036657
96989,55;0,008061584
97007;0,008055719
97022,69;0,008041056
97039,45;0,008049853
97055,83;0,00805132
97072,9;0,008054253
97089,34;0,008038123
97105,61;0,008030792
97122,08;0,008048387
97139,21;0,008067449
97155,21;0,008067449
97171,77;0,008054253
97188,34;0,008036657
97204,92;0,00803959
97221,48;0,00807478
97238,05;0,00807478
97255,17;0,008036657
97271,66;0,008014663
97287,74;0,008010264
97304,3;0,008010264
97320,88;0,008005865
97337,61;0,008024927
97354,35;0,00801173
97370,58;0,008005865
97392,51;0,007953079
97403,71;0,007928153
97420,3;0,007932551
97437,4;0,007932551
97453,41;0,007897361
97470,09;0,007897361
97486,59;0,007892962
97503,11;0,007888563
97519,72;0,007898827
97536,82;0,007903226
97552,81;0,007928153
97569,43;0,007928153
97585,95;0,007931085
97602,57;0,0078739
97619,13;0,007912024
97635,64;0,007920821
97652,2;0,007923754
97668,78;0,007919355
97685,45;0,007910557
97702,08;0,00792522
97718,48;0,007920821
97735,05;0,007903226
97751,74;0,007892962
97768,17;0,007909091
97784,88;0,007900293
97801,41;0,007878299
97817,98;0,007891496
97834,45;0,007854839
97851,01;0,007834311
97867,58;0,007825513
97884,15;0,007816716
97900,73;0,007834311
97917,34;0,007834311
97934,4;0,007841642
97950,41;0,007837243
97966,97;0,007821115
97983,89;0,007843109
98000,11;0,007821115
98016,95;0,007815249
98033,24;0,007834311
98049,81;0,007843109
98066,59;0,007807918
98082,94;0,007822581
98100,14;0,007835777
98116,07;0,007835777
98132,65;0,007856305
98149,21;0,007870967
98165,78;0,007854839
98182,78;0,007870967
98199,36;0,007859237
98215,48;0,007859237
98232,39;0,007865103
98248,61;0,007826979
98265,48;0,007803519
98281,74;0,007818182
98298,45;0,00779912
98314,88;0,007794722
98332,16;0,007797654
98348,2;0,007772727
98365,05;0,007772727
98381,14;0,007766862
98398,58;0,007766862
98414,39;0,0077522
98430,84;0,007772727
98448;0,007749267
98463,98;0,007753666
98480,55;0,007753666
98497,11;0,007771261
98513,67;0,007771261
98530,41;0,007816716
98547,41;0,007812317
98563,38;0,007796188
98579,94;0,007794722
98596,52;0,007794722
98613,08;0,007803519
98629,64;0,007793255
98646,21;0,007793255
98663,02;0,007781525
98679,37;0,007782992
98695,91;0,007781525
98712,48;0,007772727
98729,12;0,007784457
98745,64;0,007774194
98762,18;0,00778739
98778,76;0,007777126
98795,48;0,007777126
98811,98;0,00778739
98828,75;0,00778739
98845,01;0,00778739
98861,58;0,007784457
98878,74;0,007785924
98894,72;0,007756598
98911,36;0,007721408
98927,84;0,007696481
98944,41;0,00768915
98960,99;0,007687683
98977,6;0,00767302
98994,11;0,007646628
99010,67;0,007642229
99027,47;0,007659824
99044,05;0,007674487
99060,38;0,007668622
99076,95;0,007686217
99093,53;0,007662757
99110,08;0,007668622
99126,64;0,007627566
99143,21;0,007627566
99159,77;0,007595308
99176,38;0,00758651
99193,03;0,007587977
99209,73;0,007570381
99226,06;0,007570381
99244,95;0,00758651
99259,44;0,007589443
99275,74;0,0076261
99292,44;0,007621701
99309,08;0,007640763
99325,82;0,007646628
99342,16;0,007651026
99358,95;0,007640763
99375,15;0,00763783
99391,71;0,007655425
99408,28;0,007651026
99425,07;0,007651026
99441,42;0,007631965
99458,66;0,007609971
99474,55;0,007609971
99491,38;0,007609971
99508,02;0,007634897
99524,47;0,007630499
99541,28;0,007629032
99557,39;0,00764956
99573,95;0,00767742
99590,52;0,007659824
99607,09;0,007643695
99624,15;0,007627566
99640,22;0,007646628
99656,78;0,007664223
99673,35;0,007662757
99690,25;0,00763783
99706,65;0,007633431
99723,05;0,007624634
99740;0,007658358
99756,18;0,00767302
99772,74;0,007697947
99790,16;0,007711144
99806,63;0,007711144
99822,44;0,007746335
99839,02;0,007746335
99855,84;0,007771261
99872,17;0,007785924
99889,14;0,007760997
99905,27;0,007755132
99921,92;0,007747801
99939,03;0,007744868
99954,98;0,007756598
99971,54;0,007746335
99988,11;0,007733138
100004,7;0,007736071
100021,8;0,007731671
100037,9;0,007731671
100054,4;0,007690616
100070,9;0,007675953
100087,5;0,00764956
100104,1;0,007656892
100120,8;0,007645161
100137,2;0,007645161
100154,1;0,007605572
100170,4;0,00761437
100187;0,007609971
100203,5;0,007617302
100220,6;0,007607038
100236,6;0,007602639
100253,2;0,00759824
100269,9;0,007605572
100286,3;0,007611437
100302,9;0,007621701
100319,4;0,007645161
100336;0,007655425
100352,8;0,007687683
100370;0,007695015
100385,7;0,007684751
100402,5;0,007684751
100419,1;0,007683285
100435,4;0,007648094
100452;0,00764956
100468,5;0,007665689
100485,1;0,007671555
100501,7;0,00764956
100518,3;0,00764956
100534,8;0,007664223
100551,4;0,007674487
100567,9;0,007683285
100584,5;0,007668622
100601,3;0,007648094
100617,7;0,007627566
100634,2;0,007627566
100650,8;0,007645161
100667,5;0,007668622
100684,2;0,007653959
100700,5;0,007634897
100717;0,00761437
100733,6;0,007630499
100750,2;0,007630499
100766,8;0,007639296
100783,3;0,007639296
100800,6;0,00766129
100816,4;0,007648094
100833;0,007643695
100849,6;0,007643695
100866,3;0,007651026
100882,7;0,007645161
100899,3;0,007643695
100915,8;0,007686217
100932,6;0,007674487
100949;0,007699414
100965,5;0,007695015
100982,1;0,007687683
100999;0,007715543
101015,2;0,00771261
101031,8;0,007703812
101048,4;0,007703812
101064,9;0,007706745
101082,2;0,007659824
101098,1;0,00767742
101114,7;0,007681818
101131,2;0,007690616
101147,8;0,007684751
101164,3;0,007695015
101180,9;0,007683285
101197,8;0,007671555
101214;0,007686217
101230,6;0,007675953
101247,6;0,007675953
101263,7;0,007621701
101280,3;0,007617302
101296,9;0,00759824
101313,4;0,007615836
101330;0,007618769
101347,3;0,007674487
101363,1;0,007692082
101379,7;0,007699414
101396,3;0,007697947
101413,2;0,007714076
101430,1;0,007714076
101446,2;0,007715543
101463;0,007711144
101479,1;0,007697947
101495,8;0,007718475
101512,6;0,00770088
101528,9;0,007681818
101545,5;0,007671555
101562,7;0,007675953
101578,5;0,007675953
101595,1;0,007686217
101611,6;0,007692082
101628,6;0,007692082
101645,1;0,007705279
101661,3;0,007697947
101678,6;0,007697947
101694,7;0,007697947
101711;0,007674487
101727,6;0,00767742
101744,2;0,007674487
101760,7;0,00766129
101778,1;0,007640763
101793,9;0,007618769
101810,8;0,007631965
101827;0,007631965
101844,1;0,007582112
101860,5;0,007589443
101876,8;0,007579179
101893,3;0,007579179
101909,8;0,007604106
101926,4;0,007589443
101943;0,007601173
101960,5;0,007599707
101976,3;0,007599707
101993,1;0,007596774
102009,5;0,007611437
102025,8;0,007611437
102042,4;0,007604106
102059;0,007604106
102075,6;0,007599707
102093;0,007617302
102109;0,007652493
102126;0,007674487
102141,8;0,007690616
102158,4;0,007696481
102175,1;0,007696481
102191,8;0,007706745
102208,1;0,007730206
102225,3;0,007725806
102242;0,007736071
102258,4;0,00771261
102275,1;0,007721408
102291,1;0,007737537
102307,5;0,007750733
102324;0,007722874
102340,6;0,007722874
102357,2;0,007681818
102374,2;0,007681818
102390,3;0,00767302
102406,8;0,007678886
102423,4;0,007670088
102440;0,007675953
102456,7;0,007680352
102473,1;0,007648094
102489,7;0,007652493
102506,3;0,007652493
102523,5;0,007609971
102539,9;0,007620235
102556;0,007617302
102572,6;0,007605572
102589,1;0,007605572
102605,6;0,007627566
102622,2;0,007659824
102638,8;0,007658358
102655,3;0,007651026
102671,9;0,007631965
102688,5;0,007631965
102705,6;0,007627566
102721,6;0,007697947
102738,2;0,007706745
102755;0,007714076
102771,5;0,007709677
102788,7;0,007678886
102804,5;0,007683285
102821,2;0,007681818
102838,5;0,007681818
102854,1;0,007671555
102870,7;0,00766129
102887,4;0,007668622
102903,8;0,007675953
102920,7;0,007662757
102937;0,007678886
102953,6;0,007651026
102970,3;0,007658358
102986,7;0,007664223
103003,2;0,007656892
103020;0,00764956
103036,7;0,007646628
103053,7;0,007670088
103069,5;0,007670088
103086,1;0,007684751
103102,6;0,007684751
103119,4;0,007697947
103135,8;0,007715543
103152,5;0,007718475
103169,5;0,007714076
103186,2;0,007711144
103202,3;0,007719941
103218,6;0,007703812
103235,2;0,007705279
103252,2;0,007708211
103268,4;0,007717009
103284,9;0,00771261
103301,4;0,00771261
103318;0,007690616
103334,6;0,007684751
103351,1;0,007687683
103367,7;0,007608505
103384,3;0,007615836
103400,9;0,007639296
103418;0,007648094
103434;0,007648094
103450,7;0,007639296
103467,1;0,007695015
103483,7;0,007693549
103500,2;0,007653959
103516,8;0,007658358
103533,4;0,007668622
103550,6;0,00764956
103566,5;0,007653959
103583,4;0,00764956
103600,1;0,007618769
103616,2;0,007618769
103632,8;0,007620235
103649,3;0,007611437
103666,7;0,007630499
103683,1;0,007612903
103699;0,007612903
103715,8;0,007643695
103732,4;0,007656892
103749,1;0,007645161
103765,3;0,007634897
103782,4;0,007680352
103798,5;0,007655425
103815,2;0,007643695
103831,6;0,007640763
103848,1;0,007658358
103864,7;0,007674487
103881,3;0,007699414
103897,8;0,007699414
103914,4;0,007706745
103931;0,007692082
103947,9;0,007692082
103964,1;0,007678886
103981,3;0,00768915
103997,2;0,007733138
104016,6;0,007756598
104030,4;0,007813783
104047,2;0,007813783
104063,9;0,007806452
104080,1;0,007804986
104096,8;0,007785924
104113,2;0,00776393
104129,8;0,00776393
104146,8;0,007734604
104162,9;0,007733138
104179,5;0,007727273
104196,2;0,007727273
104212,6;0,007727273
104229,2;0,007737537
104246,1;0,007750733
104262,4;0,007753666
104278,9;0,007753666
104296,2;0,007734604
104312,6;0,007715543
104328,6;0,007715543
104345,1;0,007736071
104361,7;0,007756598
104378,8;0,007771261
104394,9;0,007781525
104411,6;0,00777566
104428,1;0,00779912
104444,5;0,00779912
104461,2;0,007796188
104477,7;0,007807918
104494,2;0,007810851
104510,8;0,00777566
104527,4;0,007771261
104543,9;0,007793255
104560,5;0,00778739
104577,1;0,007806452
104594,2;0,007819648
104610,2;0,007819648
104626,8;0,007819648
104643,4;0,007807918
104660,1;0,007807918
104676,5;0,007812317
104693,4;0,007771261
104709,6;0,007791789
104726,2;0,007771261
104742,7;0,007771261
104759,3;0,007772727
104776;0,007750733
104792,5;0,007737537
104809,4;0,007743402
104825,9;0,007762463
104842,2;0,007739003
104859,4;0,007739003
104875,3;0,007756598
104891,8;0,00772434
104909,3;0,007702346
104925;0,00770088
104941,6;0,007717009
104958,5;0,007722874
104974,7;0,007733138
104991,3;0,007733138
105007,8;0,00777566
105025,1;0,007765396
105040,9;0,007755132
105058,1;0,007753666
105074,1;0,007759531
105090,6;0,007760997
105107,2;0,007758065
105123,8;0,007746335
105140,3;0,007739003
105156,9;0,007743402
105173,5;0,007777126
105190;0,00777566
105206,6;0,007769795
105223,2;0,007769795
105239,8;0,007772727
105256,3;0,00777566
105273;0,00776393
105289,5;0,007753666
105306,4;0,007794722
105323,5;0,007815249
105339,1;0,00778739
105355,7;0,007796188
105372,3;0,007806452
105389;0,007782992
105405,4;0,007780059
105422,5;0,007800587
105439,2;0,007800587
105455,5;0,007810851
105471,7;0,007788857
105488,8;0,007784457
105504,8;0,007772727
105521,9;0,007804986
105537,9;0,007803519
105554,9;0,007797654
105571,1;0,007806452
105588;0,007809384
105605;0,007807918
105620,8;0,007832845
105637,3;0,007825513
105654,1;0,007825513
105670,6;0,007825513
105687,1;0,007828446
105703,6;0,007800587
105720,2;0,00778739
105737,3;0,007793255
105753,3;0,007791789
105770,4;0,007791789
105786,5;0,007793255
105803,1;0,007793255
105819,6;0,00779912
105836,3;0,007797654
105852,7;0,007782992
105869,3;0,007782992
105885,8;0,007781525
105902,6;0,007760997
105919;0,007718475
105935,5;0,007734604
105952,1;0,00770088
105969,1;0,007702346
105985,2;0,007681818
106002,3;0,007708211
106018,4;0,007699414
106034,9;0,007674487
106051,5;0,007678886
106068,1;0,007671555
106085;0,007674487
106101,2;0,007699414
106117,8;0,007696481
106135,1;0,007697947
106150,9;0,007687683
106167,5;0,00767302
106184,2;0,007668622
106200,6;0,007671555
106217,3;0,007674487
106233,8;0,007645161
106250,4;0,007629032
106266,9;0,007634897
106283,6;0,007634897
106300;0,00763783
106316,6;0,007653959
106333,1;0,007646628
106349,7;0,007646628
106366,3;0,007636364
106382,8;0,007629032
106399,6;0,007620235
106416;0,007601173
106432,8;0,007601173
106449,1;0,007587977
106466,1;0,007599707
106482,3;0,007595308
106498,8;0,007620235
106515,4;0,007620235
106532,9;0,007618769
106548,5;0,007631965
106565,1;0,007639296
106581,6;0,007659824
106598,4;0,007659824
106614,8;0,007646628
106631,3;0,007658358
106648,2;0,007651026
106664,5;0,00767302
106681;0,007651026
106698,1;0,007659824
106714,8;0,007656892
106730,9;0,007655425
106747,3;0,007639296
106763,9;0,007656892
106780,7;0,00766129
106797,3;0,007665689
106813,6;0,007681818
106830,1;0,007683285
106846,7;0,007675953
106863,3;0,007674487
106879,8;0,007674487
106896,4;0,007658358
106913;0,007655425
106929,5;0,007717009
106946,1;0,007705279
106968,2;0,007697947
106979,6;0,007656891
106995,8;0,007655425
107013,4;0,007670088
107028,9;0,007695015
107045,7;0,007667155
107062,1;0,007645161
107079,2;0,007646628
107095,2;0,007645161
107111,8;0,007653959
107129,1;0,007646628
107145,4;0,007646628
107161,5;0,007652493
107178;0,007658358
107194,6;0,007658358
107211,2;0,007658358
107227,7;0,007629032
107244,4;0,00767302
107260,9;0,007687683
107277,4;0,007699414
107294,1;0,00768915
107310,6;0,007664223
107327,2;0,007645161
107343,9;0,00767742
107360,3;0,00766129
107377,2;0,007652493
107393,4;0,007617302
107410,4;0,007617302
107426,9;0,007611437
107443,4;0,007634897
107460;0,007620235
107476,3;0,007639296
107492,8;0,007648094
107509,4;0,00767302
107526,6;0,00766129
107543,1;0,0076261
107559,1;0,0076261
107575,7;0,007624634
107592,2;0,007623167
107609;0,007590909
107625,7;0,007592375
107641,9;0,007552786
107658,5;0,007538123
107675,2;0,007548387
107692,1;0,007542522
107708,7;0,007557185
107724,8;0,007539589
107741,7;0,007539589
107757,9;0,007485338
107774,5;0,007485338
107791;0,007485338
107807,6;0,007492669
107824,1;0,007494135
107841,2;0,007565983
107857,6;0,007599707
107873,8;0,007583578
107890,6;0,007583578
107907;0,007580645
107923,8;0,007595308
107940,7;0,007596774
107957,1;0,007604106
107973,5;0,007590909
107989,8;0,007590909
108006,7;0,007599707
108023,5;0,007579179
108039,5;0,007571848
108056,1;0,007558651
108073,1;0,007549854
108089,7;0,007546921
108105,8;0,007536657
108122,3;0,00752346
108138,9;0,007514663
108156,1;0,007538123
108172;0,007539589
108188,7;0,00755132
108205,2;0,007545454
108222,4;0,007542522
108239,2;0,007541056
108254,9;0,007549854
108271,6;0,007552786
108288,6;0,007571848
108304,6;0,007589443
108321,1;0,007596774
108337,8;0,007589443
108354,3;0,007596774
108371,3;0,007570381
108387,4;0,007593842
108404;0,00761437
108420,9;0,00761437
108437,1;0,00761437
108453,7;0,007627566
108470,2;0,007627566
108486,8;0,007645161
108503,7;0,007618769
108519,9;0,007648094
108536,5;0,007643695
108553,1;0,007633431
108569,6;0,007623167
108586,2;0,00759824
108602,8;0,00759824
108619,3;0,00759824
108636;0,007564516
108652,5;0,007576246
108669;0,007593842
108686,2;0,00761437
108702,2;0,00761437
108718,7;0,007624634
108735,3;0,007624634
108751,9;0,007634897
108768,4;0,007636364
108785,3;0,007646628
108802,2;0,007631965
108818,1;0,00761437
108834,7;0,007611437
108851,4;0,007615836
108867,8;0,007640763
108884,4;0,007639296
108901;0,007623167
108917,6;0,0076261
108934,1;0,007621701
108950,8;0,007621701
108967,3;0,007612903
108983,8;0,007636364
109000,7;0,007639296
109017,4;0,007639296
109033,5;0,007618769
109050,3;0,007618769
109067;0,007621701
109083,2;0,007621701
109099,8;0,007653959
109116,9;0,007683285
109132,9;0,007715543
109149,5;0,00771261
109166;0,007705279
109182,8;0,007709677
109199,2;0,007687683
109215,7;0,007674487
109232,3;0,007658358
109249,2;0,007658358
109265,4;0,007643695
109282,7;0,007634897
109298,6;0,007634897
109315,1;0,007607038
109332,6;0,007595308
109348,5;0,007601173
109364,8;0,007612903
109381,4;0,007617302
109398,2;0,007643695
109414,5;0,007653959
109431,8;0,007631965
109447,7;0,007633431
109464,2;0,007645161
109480,8;0,007658358
109497,4;0,007658358
109514,5;0,0076261
109530,5;0,007646628
109547,1;0,00767302
109563,6;0,00767302
109580,3;0,00767302
109597,2;0,007690616
109613,3;0,007684751
109630,1;0,00768915
109646,9;0,007714076
109663,3;0,007714076
109680,4;0,00770088
109696,2;0,00768915
109712,8;0,00768915
109729,5;0,007686217
109745,9;0,007705279
109762,4;0,007681818
109779,8;0,007696481
109795,6;0,007683285
109812,3;0,007668622
109828,7;0,007686217
109845,4;0,007668622
109862;0,007668622
109878,4;0,007671555
109895;0,007671555
109911,5;0,007659824
109928,2;0,00770088
109945,4;0,007706745
109961,4;0,007714076
109978,4;0,007711144
109994,4;0,007706745
110011,5;0,00770088
110028,2;0,00770088
110044,1;0,007730206
110060,7;0,007753666
110077,2;0,007758065
110093,8;0,007784457
110110,4;0,007809384
110127,1;0,00785044
110143,5;0,007840176
110160;0,00783871
110176,7;0,007832845
110193,2;0,007826979
110209,8;0,007829912
110226,4;0,007848973
110243;0,007859237
110259,6;0,007857772
110276;0,007857772
110292,6;0,007868036
110309,7;0,007866569
110325,7;0,007869502
110342,3;0,0078739
110358,8;0,007876833
110375,4;0,007876833
110392;0,007870967
110408,6;0,007863636
110425,1;0,007876833
110441,8;0,007887097
110458,2;0,007887097
110474,8;0,007860704
110491,4;0,007881232
110508,3;0,007882698
110524,5;0,007857772
110541,1;0,007857772
110558,4;0,007857772
110574,2;0,007859237
110590,8;0,00788563
110607,3;0,007891496
110624,1;0,007891496
110640,5;0,007887097
110657;0,007894428
110673,6;0,007879766
110690,2;0,007854839
110706,8;0,007828446
110723,3;0,007816716
110740,4;0,007810851
110756,7;0,00779912
110773;0,007778592
110790,2;0,007813783
110806,3;0,007816716
110822,7;0,007816716
110839,3;0,007815249
110855,8;0,007803519
110873;0,007803519
110889,2;0,007803519
110905,5;0,00779912
110922,1;0,007816716
110938,7;0,007826979
110955,2;0,007826979
110971,8;0,007793255
110988,8;0,007793255
111005,6;0,007797654
111021,5;0,00778739
111038,1;0,007785924
111054,7;0,007731671
111071,6;0,007731671
111087,8;0,007719941
111104,3;0,007706745
111120,9;0,007705279
111137,5;0,007695015
111154;0,007741936
111170,6;0,007739003
111187,2;0,0077522
111203,7;0,0077522
111220,6;0,007750733
111237,3;0,007746334
111253,4;0,007721408
111270;0,007711144
111286,6;0,007719941
111303,1;0,007719941
111319,7;0,007730206
111337;0,007747801
111352,8;0,007753666
111369,4;0,007733138
111386;0,007737537
111402,8;0,007733138
111419,1;0,007730206
111435,9;0,007730206
111452,2;0,007733138
111468,8;0,007733138
111485,5;0,007746334
111501,9;0,007771261
111518,8;0,007803519
111535,8;0,007759531
111551,6;0,007759531
111568,2;0,007759531
111585,1;0,007740469
111601,3;0,007731671
111618;0,007727273
111634,5;0,007718475
111651;0,007718475
111667,6;0,007728739
111684,2;0,007746334
111700,7;0,007825513
111717,3;0,007832845
111733,9;0,00783871
111750,4;0,00783871
111768;0,007822581
111783,6;0,007829912
111800,1;0,007843109
111816,9;0,007843109
111833,3;0,007843109
111849,9;0,007876833
111866,4;0,007868036
111883;0,007868036
111899,5;0,007859237
111916,5;0,007806452
111933,4;0,007807918
111949,3;0,007807918
111965,8;0,007818182
111982,4;0,007821115
111998,9;0,007828446
112016,3;0,007825513
112032,1;0,007825513
112049,2;0,007794722
112065,5;0,007815249
112082,4;0,007815249
112098,3;0,007807918
112114,9;0,007755132
112131,5;0,007758065
112148,1;0,007794722
112164,6;0,007794722
112181,2;0,007794722
112198,5;0,007807918
112214,3;0,00779912
112230,9;0,007769795
112248,4;0,007746334
112264;0,007746334
112280,6;0,007727273
112297,1;0,007730206
112313,7;0,007730206
112330,5;0,007692082
112346,8;0,007678886
112363,4;0,007686217
112380,4;0,007693549
112396,5;0,007693549
112413,2;0,007662757
112429,7;0,007662757
112446,3;0,007648094
112462,8;0,007656892
112480;0,007667155
112495,9;0,007653959
112512,5;0,00764956
112529,4;0,007653959
112545,8;0,007653959
112562,3;0,007671555
112578,8;0,007664223
112595,6;0,00767742
112612;0,007671555
112629;0,007655425
112646;0,007675953
112661,6;0,007678886
112678,2;0,007687683
112695;0,007674487
112711,3;0,007696481
112728;0,00771261
112745,1;0,007725806
112761;0,007717009
112777,6;0,00768915
112794,8;0,00768915
112818,8;0,00767742
112827,3;0,007739003
112843,9;0,007739003
112860,7;0,00777566
112878;0,007762463
112893,6;0,007768329
112910,1;0,007762463
112926,7;0,007762463
112943,4;0,007781525
112959,8;0,007765396
112976,4;0,007777126
112993,3;0,007747801
113009,5;0,007725806
113026,1;0,007728739
113042,7;0,007728739
113059,2;0,007733138
113075,8;0,007743402
113092,6;0,00776393
113109,3;0,007766862
113125,5;0,007736071
113142;0,007743402
113158,6;0,007699414
113175,8;0,007702346
113191,8;0,007719941
113208,3;0,007725806
113225,3;0,007722874
113241,4;0,007705279
113258;0,00771261
113274,6;0,00771261
113291,1;0,007722874
113308,1;0,007731671
113324,4;0,007714076
113340,9;0,007722874
113357,4;0,007705279
113374;0,00772434
113390,7;0,007737537
113407,1;0,007740469
113423,7;0,007728739
113440,2;0,007728739
113457,5;0,007727273
113473,4;0,007727273
113489,9;0,00770088
113506,5;0,007671555
113523,1;0,007671555
113540,1;0,00767302
113556,2;0,00767302
113573;0,007664223
113589,3;0,00766129
113605,9;0,007640763
113622,5;0,007690616
113639,1;0,007736071
113655,6;0,007736071
113672,2;0,007702346
113688,7;0,007697947
113705,3;0,007684751
113721,9;0,007684751
113738,4;0,007702346
113755,4;0,007774194
113771,6;0,007758065
113788,5;0,007758065
113805;0,007749267
113821,3;0,007731671
113837,8;0,007739003
113854,6;0,007737537
113871;0,007750733
113887,8;0,007718475
113904,2;0,007717009
113920,7;0,007739003
113937,2;0,007727273
113953,8;0,007727273
113970,4;0,007727273
113986,9;0,0077522
114003,6;0,007697947
114020,1;0,007697947
114036,6;0,007697947
114054;0,00772434
114069,9;0,007718475
114086,3;0,007708211
114103,8;0,007708211
114119,5;0,007714076
114136,4;0,007725806
114152,6;0,00771261
114169,3;0,007706745
114185,7;0,007705279
114202,4;0,007708211
114218,9;0,007708211
114235,9;0,007722874
114252;0,007733138
114268,6;0,007743402
114285,7;0,007769795
114301,7;0,007774194
114318,3;0,007781525
114335;0,007777126
114351,4;0,007781525
114368;0,007796188
114384,6;0,007796188
114401,5;0,007771261
114417,7;0,007772727
114435;0,007772727
114450,8;0,007794722
114468,2;0,007790323
114484,2;0,007769795
114500,5;0,007755132
114517,1;0,007755132
114533,6;0,007766862
114550,6;0,007750733
114566,8;0,007753666
114583,4;0,007753666
114599,9;0,007737537
114616,9;0,007728739
114633;0,007728739
114650,4;0,00771261
114666,3;0,00771261
114682,7;0,007692082
114699,5;0,007696481
114715,9;0,007696481
114732,4;0,007674487
114749,6;0,00766129
114765,6;0,007652493
114782,1;0,007670088
114798,7;0,007686217
114815,3;0,007670088
114831,8;0,007646628
114848,4;0,007646628
114865;0,007617302
114882;0,007592375
114898,1;0,00759824
114915,1;0,007587977
114931,3;0,007558651
114947,8;0,007567449
114964,6;0,007567449
114980,9;0,007568915
114997,5;0,007601173
115014,1;0,00759824
115031,4;0,007643695
115047,2;0,007645161
115064;0,00763783
115080,5;0,007605572
115097,3;0,007601173
115114,1;0,00758651
115130,7;0,007623167
115147,1;0,007645161
115163,4;0,007645161
115179,7;0,007615836
115196,3;0,007595308
115212,9;0,007576246
115229,4;0,007595308
115246,2;0,007611437
115262,6;0,007643695
115279,6;0,00763783
115295,7;0,007655425
115312,3;0,007674487
115328,9;0,00767742
115345,6;0,00766129
115362,3;0,007658358
115378,9;0,007629032
115395,5;0,007629032
115411,7;0,007633431
115428,3;0,007629032
115445,8;0,007592375
115461,4;0,007596774
115478;0,007602639
115494,5;0,007602639
115511,1;0,007573314
115527,7;0,007549854
115544,5;0,007548387
115560,8;0,007561584
115577,4;0,007561584
115594,2;0,007567449
115610,5;0,007510264
115627,3;0,007491203
115644,4;0,007469208
115660,2;0,007450147
115676,8;0,007451613
115693,3;0,007469208
115710,5;0,007441349
115726,4;0,007414956
115743;0,007414956
115759,6;0,007379766
115776,1;0,007369502
115792,9;0,007348974
115809,7;0,007348974
115826,9;0,007357772
115842,5;0,007365103
115859;0,007351906
115875,5;0,007363637
115892,1;0,007369502
115908,7;0,007370968
115925,2;0,00732698
115941,8;0,007315249
115958,4;0,007324047
115974,9;0,007315249
115991,5;0,007356305
116008,1;0,007354839
116024,9;0,007354839
116041,2;0,00735044
116058;0,007328446
116074,3;0,007328446
116091,5;0,007315249
116107,5;0,007315249
116124,1;0,007304986
116140,6;0,007304986
116157,2;0,007324047
116174,2;0,007313783
116190,6;0,007302053
116206,9;0,007294721
116224,1;0,007294721
116240,4;0,007340176
116256,6;0,007353372
116273,2;0,007390029
116289,8;0,007372434
116306,3;0,007322581
116322,8;0,007271261
116339,6;0,007258065
116356,2;0,007258065
116373;0,007271261
116389,3;0,00726393
116405,7;0,00726393
116422,2;0,00726393
116439,1;0,007315249
116455,5;0,007290323
116471,9;0,007294721
116488,5;0,007296188
116505,4;0,007296188
116522;0,007303519
116538,2;0,007285924
116554,8;0,007285924
116572;0,007259531
116587,9;0,007243402
116604,5;0,007259531
116621;0,007265396
116638,2;0,007260997
116654,2;0,007291789
116670,9;0,007325513
116688,2;0,007332845
116703,9;0,007332845
116720,4;0,007337243
116737,2;0,007337243
116754;0,007346041
116770,1;0,007354839
116786,7;0,007354839
116803,3;0,007347507
116819,8;0,007331378
116836,4;0,007378299
116853,3;0,007366569
116869,5;0,007366569
116886,1;0,007417889
116903;0,007439883
116919,2;0,007438417
116936,1;0,007431085
116952,4;0,007426686
116968,9;0,007432552
116985,5;0,007432552
117002,3;0,007434017
117018,6;0,007456012
117035,3;0,007457478
117052,1;0,007489736
117068,7;0,007567449
117085,2;0,007607038
117101,5;0,007617302
117118;0,007653959
117135,4;0,007662757
117151,2;0,007739003
117167,7;0,007781525
117184,5;0,007788857
117200,9;0,007788857
117217,7;0,007771261
117234,4;0,007743402
117250,8;0,007741936
117267,1;0,007733138
117283,7;0,007715543
117300,3;0,007696481
117317,2;0,00768915
117333,4;0,007715543
117350,3;0,007727273
117366,5;0,007755132
117383,3;0,007760997
117399,7;0,007788857
117416,2;0,007788857
117433,3;0,007788857
117450,1;0,007777126
117465,9;0,007780059
117482,5;0,007816716
117499,1;0,007828446
117515,9;0,007828446
117532,3;0,007847507
117548,8;0,00783871
117565,3;0,007869502
117581,9;0,007898827
117598,5;0,007907624
117615;0,007941349
117631,7;0,007938417
117648,2;0,007929618
117664,7;0,007944281
117681,3;0,007954545
117698,4;0,007975074
117714,4;0,007983871
117731;0,007995601
117747,9;0,008052786
117764,2;0,008055719
117780,8;0,008092375
117797,3;0,008092375
117814,1;0,00811437
117830,4;0,008142229
117847,5;0,008129032
117863,9;0,008117302
117880,4;0,008115835
117896,7;0,008127566
117913,4;0,008149561
117929,8;0,008165689
117946,4;0,008165689
117963;0,008167155
117979,5;0,008222874
117996,1;0,008249267
118013;0,008285924
118029,2;0,008285924
118046,3;0,008281525
118062,4;0,008278592
118078,9;0,008284458
118095,5;0,008272727
118112,1;0,00826393
118129,2;0,008274194
118145,3;0,008262464
118161,8;0,008272727
118178,3;0,0082522
118195,2;0,008233138
118211,5;0,008247801
118228,1;0,008237537
118244,7;0,008211144
118261,1;0,0082522
118277,9;0,008192082
118294,9;0,008190616
118310,9;0,00821261
118327,5;0,00821261
118344;0,00827566
118361,2;0,008306452
118377,1;0,008280058
118394,4;0,008280058
118410,9;0,008303519
118426,8;0,008281525
118443,4;0,008255132
118459,9;0,008268328
118476,5;0,008268328
118493,3;0,008244868
118509,6;0,008239003
118526,4;0,008231672
118542,8;0,008217009
118559,3;0,008217009
118575,9;0,008217009
118592,5;0,008288857
118609,2;0,008294721
118625,9;0,008282991
118642,7;0,008241936
118658,7;0,008241936
118675,3;0,008234604
118691,9;0,008221407
118708,4;0,008192082
118725,3;0,008190616
118741,6;0,008214076
118758,2;0,008241936
118774,9;0,008234604
118791,3;0,008294721
118808,1;0,008284458
118824,5;0,008246334
118841,2;0,00823607
118858,4;0,008234604
118874,1;0,0082522
118891,4;0,008195015
118907,2;0,008178886
118923,8;0,008228739
118940,4;0,008233138
118956,9;0,008233138
118973,5;0,008230206
118990,1;0,008214076
119007;0,008197947
119023,2;0,008167155
119039,8;0,008156892
119056,3;0,008120235
119073,2;0,00809091
119089,9;0,008070381
119106;0,008024927
119122,6;0,008010264
119139,2;0,008
119156,5;0,007945748
119172,3;0,007903226
119188,9;0,007903226
119205,4;0,00790176
119222;0,007904693
119238,6;0,007920821
119255,1;0,007920821
119271,7;0,007912024
119288,3;0,007923754
119304,8;0,007923754
119321,6;0,007950147
119338,2;0,007983871
119354,5;0,007983871
119371,1;0,007969208
119387,7;0,007910557
119404,3;0,007919355
119420,8;0,007904693
119437,4;0,007904693
119456,1;0,007917888
119470,5;0,007878299
119487,1;0,00789003
119503,6;0,0078739
119520,4;0,007863636
119536,8;0,007872434
119553,5;0,0078739
119569,9;0,007859237
119586,5;0,00779912
119603;0,007816716
119619,7;0,007806452
119636,2;0,007806452
119653;0,007807918
119669,3;0,007816716
119686,5;0,007816716
119702,4;0,007806452
119719,6;0,007802053
119735,6;0,007800587
119752,2;0,007755132
119768,7;0,007733138
119785,3;0,007697947
119801,8;0,007697947
119818,7;0,007651026
119835;0,007646628
119851,6;0,007665689
119868,1;0,007675953
119884,7;0,007683285
119901,5;0,00766129
119917,8;0,007656892
119934,4;0,00766129
119951,2;0,00766129
119967,5;0,007659824
119984,5;0,007651026
120000,6;0,007627566
120017,4;0,007573314
120034,1;0,00758651
120051;0,007611437
120066,9;0,007590909
120083,5;0,007590909
120100;0,007602639
120116,6;0,007634897
120133,2;0,007620235
120149,7;0,007615836
120166,4;0,007629032
120182,9;0,007608505
120199,4;0,007608505
120216,8;0,00767742
120232,6;0,007665689
120249,1;0,007636364
120265,9;0,007627566
120282,3;0,007662757
120298,8;0,007702346
120315,4;0,007686217
120332;0,007693549
120349;0,007646628
120365,1;0,007645161
120381,7;0,007599707
120398,2;0,007573314
120414,8;0,007565983
120431,4;0,007545454
120448,2;0,007582112
120464,5;0,00757478
120481,7;0,00758651
120498,2;0,007596774
120514,2;0,007583578
120530,8;0,007592375
120547,3;0,007604106
120563,9;0,007609971
120580,5;0,007609971
120597,1;0,007590909
120613,8;0,007582112
120630,2;0,00757478
120646,9;0,007611437
120663,3;0,007695015
120680;0,007681818
120696,6;0,007690616
120713;0,007668622
120729,6;0,007667155
120746,2;0,007639296
120762,7;0,007630499
120779,3;0,007640763
120795,9;0,007640763
120812,4;0,007609971
120829;0,007629032
120845,5;0,007623167
120862,5;0,007602639
120879,3;0,007602639
120895,4;0,00759824
120911,8;0,007607038
120928,4;0,00757478
120944,9;0,007570381
120961,5;0,007573314
120978,6;0,007631965
120994,6;0,007630499
121011,4;0,007615836
121028,1;0,007592375
121044,3;0,007607038
121061,6;0,007623167
121078;0,007627566
121094,3;0,007645161
121110,9;0,007618769
121127,9;0,007570381
121143,8;0,007580645
121160,5;0,007580645
121176,9;0,007587977
121193,5;0,007587977
121210,1;0,007595308
121226,6;0,007601173
121243,1;0,007607038
121259,7;0,007607038
121276,3;0,007589443
121293,6;0,00761437
121309,4;0,007557185
121326;0,007565983
121342,5;0,007554252
121359,1;0,007502933
121375,9;0,00748827
121392,2;0,007485338
121408,8;0,007485338
121425,4;0,007460411
121441,9;0,007469208
121459,4;0,007492669
121475,1;0,007495601
121492;0,007489736
121508,3;0,007479472
121524,8;0,007486803
121541,5;0,007508798
121557,9;0,007521994
121574,5;0,007486803
121591,3;0,00747654
121607,9;0,007441349
121624,5;0,007435484
121640,7;0,007435484
121657,3;0,007473607
121673,9;0,007428152
121690,4;0,007485338
121707;0,00748827
121723,6;0,007461877
121740,2;0,007441349
121757,2;0,007475073
121773,9;0,007494135
121789,8;0,007494135
121806,8;0,007568915
121823;0,007568915
121839,5;0,007557185
121856,5;0,00755132
121872,9;0,00755132
121889,2;0,007538123
121905,8;0,007558651
121922,4;0,007538123
121939,1;0,007510264
121956,1;0,007510264
121972,6;0,00748827
121988,7;0,007495601
122005,2;0,007454546
122021,9;0,007444282
122038,5;0,007444282
122054,9;0,007419355
122071,5;0,007447214
122088,3;0,007447214
122104,6;0,007444282
122121,4;0,007391496
122138,3;0,007373901
122154,4;0,007392962
122170,9;0,007395895
122187,4;0,007375367
122204;0,007366569
122221;0,00736217
122237,1;0,007368035
122253,7;0,007369502
122270,3;0,007370968
122287;0,007315249
122303,4;0,007312317
122320;0,007312317
122336,5;0,007309384
122353,1;0,007302053
122370,1;0,007312317
122386,6;0,007316716
122403,5;0,00732698
122419,4;0,00732698
122436;0,007363637
122452,9;0,007363637
122469,1;0,007398827
122486,1;0,007417889
122502,2;0,007417889
122518,8;0,007445748
122535,3;0,007445748
122552,2;0,007457478
122568,5;0,007457478
122585,1;0,007412023
122601,6;0,007412023
122618,5;0,007407625
122634,7;0,007387097
122651,3;0,007409091
122667,9;0,007420821
122685,1;0,00742522
122701;0,007439883
122717,6;0,007473607
122734,1;0,007439883
122750,9;0,007447214
122767,6;0,007447214
122783,8;0,007453079
122800,6;0,007447214
122817;0,007447214
122833,5;0,007447214
122850,1;0,007483871
122866,7;0,007510264
122883,3;0,007510264
122899,8;0,007516129
122916,4;0,007552786
122933;0,007568915
122949,5;0,007568915
122966,1;0,00758651
122982,6;0,007599707
122999,4;0,007621701
123015,8;0,007639296
123032,3;0,0076261
123048,9;0,007630499
123065,8;0,007634897
123082;0,007620235
123098,6;0,007599707
123115,3;0,00761437
123132,4;0,007615836
123148,3;0,007615836
123164,9;0,007636364
123181,7;0,007636364
123198,1;0,007636364
123214,6;0,007627566
123231,1;0,007692082
123247,8;0,007703812
123264,3;0,007705279
123281;0,00770088
123297,4;0,0077522
123314,4;0,007736071
123330,6;0,007762463
123347,4;0,007777126
123364,1;0,007806452
123380,3;0,007806452
123396,8;0,007853373
123413,4;0,007844575
123430;0,007863636
123446,5;0,007853373
123463,6;0,007857772
123479,6;0,007879766
123496,2;0,007894428
123512,8;0,007920821
123529,9;0,00791349
123546,2;0,007904693
123562,5;0,007919355
123579;0,00792522
123595,9;0,007979472
123612,2;0,007982405
123629,5;0,007986804
123645,4;0,007966275
123661,9;0,007966275
123678,5;0,007966275
123695;0,007972141
123712,2;0,007985338
123728,2;0,007989736
123744,7;0,007982405
123761,3;0,007982405
123778,1;0,007975074
123794,4;0,007975074
123811;0,007975074
123827,5;0,007975074
123844,1;0,007992669
123860,9;0,008002933
123877,7;0,008002933
123893,8;0,007976539
123910,4;0,008017596
123926,9;0,008042522
123944,1;0,008057185
123960,1;0,008057185
123976,6;0,008014663
123993,2;0,008038123
124009,8;0,008140762
124026,7;0,008140762
124042,9;0,008156892
124059,5;0,008203813
124076;0,008181818
124093;0,008193549
124109,2;0,008225807
124126;0,008268328
124142,7;0,008253666
124158,9;0,008250733
124175,4;0,008250733
124192,2;0,008249267
124208,8;0,008260997
124225,4;0,008272727
124241,9;0,008332845
124258,3;0,008332845
124274,8;0,008304985
124291,4;0,008294721
124308;0,008278592
124324,5;0,008285924
124341,1;0,008319648
124358;0,008337243
124374,2;0,008370968
124390,8;0,008409091
124407,4;0,008404693
124424;0,008417889
124440,5;0,008417889
124457,5;0,008428153
124473,6;0,00842522
124490,2;0,008414956
124506,8;0,008370968
124523,4;0,008376833
124540,1;0,008376833
124556,5;0,008423754
124573,3;0,008419355
124589,7;0,008434018
124606,2;0,008438417
124622,9;0,008444281
124639,9;0,008491202
124655,9;0,008428153
124673,2;0,008398827
124689,2;0,008398827
124705,6;0,008387097
124722,8;0,008400293
124739;0,008183285
124739;0,008171555
124759;0,008149561
124775,3;0,008178886
124791,9;0,008152492
124808,4;0,008146628
124825,4;0,008148094
124842,1;0,008121701
124858,1;0,008118768
124874,8;0,008104105
124891,3;0,008089443
124908,3;0,00809091
124924,5;0,00808651
124941;0,008076247
124957,7;0,008068915
124974,2;0,00805132
124990,7;0,00803959
125007,2;0,00803959
125023,8;0,008036657
125040,6;0,008068915
125056,9;0,00803959
125073,5;0,008033725
125090;0,008026393
125106,7;0,008026393
125123,2;0,008027859
125140,3;0,007995601
125156,4;0,007994135
125172,9;0,007957478
125189,5;0,007944281
125206;0,007932551
125222,6;0,007920821
125239,1;0,007929618
125255,7;0,007942815
125272,3;0,00791349
125288,9;0,007897361
125305,4;0,007892962
125322;0,007892962
125338,6;0,00788563
125355,1;0,00791349
125372;0,007907624
125388,3;0,007813783
125404,8;0,007813783
125421,5;0,007826979
125438;0,007816716
125454,5;0,007813783
125471,3;0,007781525
125487,7;0,007781525
125504,2;0,007785924
125521,2;0,007790323
125537,4;0,00778739
125554,4;0,00778739
125576;0,007780059
125587,1;0,00778739
125603,9;0,007794722
125620,2;0,007794722
125637,2;0,007719941
125653,3;0,007687683
125670,1;0,007737537
125686,7;0,007737537
125703;0,007727273
125719,6;0,007717009
125736,2;0,00768915
125752,7;0,00768915
125769,3;0,007618769
125785,9;0,007587977
125802,4;0,00759824
125819;0,00759824
125835,7;0,007595308
125852,3;0,007585044
125868,7;0,007596774
125885,3;0,007596774
125901,8;0,007580645
125918,7;0,007595308
125935;0,007595308
125951,5;0,00758651
125968,1;0,007595308
125984,6;0,007615836
126001,7;0,007568915
126017,8;0,007568915
126034,6;0,007571848
126051,1;0,007602639
126067,5;0,007589443
126084,2;0,007599707
126100,6;0,007602639
126117,6;0,007582112
126133,8;0,007582112
126150,3;0,007604106
126166,9;0,007646628
126183,4;0,007646628
126200;0,007634897
126216,8;0,007634897
126233,2;0,007561584
126249,7;0,007557185
126266,3;0,007615836
126282,9;0,007576246
126299,4;0,007573314
126316;0,007573314
126332,5;0,007543989
126349,3;0,007524927
126365,7;0,007524927
126382,3;0,007526393
126399,3;0,007526393
126415,4;0,007508798
126432,5;0,007539589
126448,7;0,007543989
126465,1;0,007557185
126481,6;0,007558651
126498,2;0,007558651
126520,6;0,007539589
126531,4;0,007548387
126547,9;0,007548387
126565,1;0,007532258
126581,1;0,007517595
126597,6;0,007529326
126614,2;0,007529326
126631;0,007535191
126647,8;0,007545454
126663,9;0,007543989
126680,5;0,007548387
126697;0,007548387
126713,6;0,007524927
126730,2;0,007508798
126746,8;0,007498534
126763,3;0,007505865
126780;0,007508798
126796,7;0,007530792
126813;0,007533724
126829,6;0,007529326
126846,1;0,007549854
126862,7;0,007545454
126879,3;0,007541056
126896,7;0,007554252
126912,4;0,007554252
126928,9;0,007542522
126945,5;0,007564516
126962,1;0,00757478
126978,7;0,007571848
126995,2;0,007571848
127011,8;0,007571848
127028,4;0,007571848
127045;0,00755132
127062;0,007524927
127078;0,007555719
127094,6;0,007573314
127111,2;0,007573314
127128,5;0,007573314
127144,4;0,007570381
127160,9;0,00756305
127177,9;0,007568915
127194;0,007561584
127210,6;0,007568915
127227,3;0,007587977
127243,7;0,007587977
127260,4;0,00759824
127276,9;0,007568915
127293,4;0,007561584
127310;0,007554252
127326,6;0,007527859
127343,1;0,007524927
127359,9;0,007533724
127376,3;0,007521994
127392,8;0,007520528
127409,4;0,007498534
127426,3;0,007498534
127442,9;0,007492669
127459,1;0,007495601
127475,9;0,007505865
127493;0,007497068
127508,8;0,007472141
127525,4;0,007479472
127542,9;0,007482405
127558,5;0,007482405
127575,1;0,007486803
127591,8;0,007489736
127608,3;0,007502933
127624,8;0,007529326
127641,3;0,007532258
127657,9;0,007546921
127675,3;0,007535191
127691;0,00755132
127708,2;0,00752346
127724,7;0,007514663
127740,7;0,007530792
127757,5;0,007536657
127773,9;0,00752346
127790,8;0,007536657
127807;0,00751173
127823,6;0,007507332
127840,7;0,007514663
127856,7;0,007514663
127873,3;0,007507332
127889,9;0,007526393
127907;0,00751173
127923;0,007472141
127939,5;0,007472141
127956,1;0,007467742
127972,8;0,007469208
127989,2;0,007486803
128005,8;0,007482405
128022,4;0,007482405
128038,9;0,007482405
128055,5;0,007478006
128072,3;0,007485338
128088,6;0,007489736
128106;0,007495601
128122,2;0,007489736
128138,5;0,007480938
128154,9;0,007483871
128172;0,007479472
128188;0,007486803
128204,9;0,007486803
128221,1;0,007498534
128237,7;0,007489736
128254,3;0,007507332
128271,6;0,007504399
128287,6;0,007504399
128304;0,007504399
128320,6;0,007504399
128337,1;0,007517595
128354,1;0,007532258
128370,3;0,007564516
128386,8;0,00757478
128403,9;0,007541056
128420,6;0,007545454
128437,2;0,00755132
128453,8;0,007521994
128470,4;0,007501466
128486,9;0,007516129
128503,5;0,007542522
128520,4;0,007532258
128536,6;0,007505865
128553,3;0,007513197
128569,7;0,007538123
128586,5;0,007558651
128602,9;0,007529326
128620,1;0,007539589
128636;0,007539589
128652,8;0,007538123
128669,9;0,007536657
128686,2;0,007542522
128702,3;0,007536657
128719;0,007543989
128735,8;0,007554252
128752;0,007567449
128768,5;0,007561584
128785,2;0,007571848
128801,6;0,007570381
128818,2;0,007568915
128834,8;0,007573314
128851,4;0,007593842
128868;0,007596774
128884,5;0,007583578
128901,1;0,007579179
128918;0,007579179
128934,2;0,007571848
128950,8;0,007567449
128967,3;0,007585044
128983,9;0,00756305
129000,5;0,007558651
129017;0,007585044
129033,8;0,007621701
129050,2;0,007608505
129066,7;0,007608505
129083,3;0,007605572
129100,1;0,007604106
129116,8;0,007604106
129133;0,007608505
129149,7;0,007608505
129166,1;0,007609971
129182,7;0,007602639
129199,3;0,00759824
129216;0,00759824
129232,4;0,00758651
129249,4;0,007568915
129265,5;0,007596774
129282,1;0,007608505
129299,1;0,007608505
129315,2;0,007605572
129331,8;0,007604106
129348,4;0,007617302
129364,9;0,007656892
129381,5;0,007656892
129398,1;0,007655425
129414,6;0,007681818
129431,3;0,007683285
129447,8;0,007683285
129464,3;0,007686217
129481;0,007692082
129497,5;0,00771261
129514;0,007715543
129530,6;0,007705279
129547,2;0,007684751
129563,7;0,007683285
129580,3;0,007681818
129597,1;0,007671555
129613,4;0,00767742
129630;0,00767742
129646,6;0,007655425
129663,1;0,007648094
129679,7;0,007705279
129696,4;0,007734604
129712,9;0,007728739
129729,4;0,007731671
129746;0,00771261
129762,6;0,007737537
129779,1;0,007743402
129795,7;0,007756598
129812,2;0,007771261
129828,8;0,007771261
129845,4;0,007802053
129862,5;0,007806452
129878,5;0,007804986
129895,3;0,007791789
129911,6;0,007778592
129928,5;0,007785924
129944,8;0,00777566
129961,3;0,007807918
129977,9;0,00778739
129994,5;0,00776393
130011,2;0,007749267
130027,6;0,007747801
130044,5;0,007772727
130061,2;0,007758065
130077,3;0,007750733
130094,4;0,007731671
130111,4;0,007728739
130127;0,007725806
130143,6;0,007727273
130160,3;0,007715543
130176,7;0,007711144
130193,3;0,007695015
130209,8;0,007695015
130226,4;0,007695015
130243;0,007715543
130260,1;0,007719941
130276,1;0,007727273
130292,7;0,007715543
130309,2;0,007722874
130325,8;0,00772434
130345,5;0,007711144
130358,9;0,007718475
130375,5;0,007730206
130392,1;0,007705279
130408,6;0,007705279
130425,2;0,007741936
130441,8;0,007760997
130458,3;0,00777566
130474,9;0,00777566
130491,5;0,00777566
130508;0,007731671
130524,7;0,007725806
130541,2;0,007739003
130558;0,007744868
130574,3;0,007762463
130591,1;0,007762463
130607,4;0,007759531
130624;0,007762463
130641,4;0,007756598
130657,1;0,0077522
130673,7;0,007739003
130690,3;0,007749267
130707;0,007744868
130723,4;0,007741936
130740,4;0,007733138
130756,5;0,007733138
130773,3;0,007683285
130789,7;0,007692082
130806,2;0,007675953
130823,1;0,007683285
130839,4;0,007683285
130855,9;0,007686217
130872,5;0,007690616
130889,3;0,00771261
130905,8;0,007714076
130922,2;0,007696481
130938,8;0,007668622
130955,7;0,007671555
130971,9;0,007671555
130988,5;0,007696481
131005,1;0,007706745
131021,6;0,007683285
131038,3;0,00768915
131054,7;0,00767302
131071,3;0,00767302
131087,9;0,00767302
131104,4;0,007705279
131121;0,007721408
131137,6;0,007709677
131154,2;0,007709677
131170,8;0,007717009
131187,3;0,007717009
131204;0,007730206
131220,4;0,007725806
131237;0,00772434
131253,5;0,007758065
131270,1;0,007740469
131286,7;0,007737537
131303,2;0,007739003
131321,4;0,007782992
131336,4;0,007797654
131352,9;0,007765396
131369,5;0,007765396
131386,1;0,007780059
131402,6;0,007768329
131419,2;0,007737537
131435,8;0,007717009
131452,3;0,007715543
131469;0,007715543
131485,5;0,007708211
131502;0,007722874
131518,6;0,007719941
131535,2;0,007728739
131551,8;0,007743402
131568,6;0,007762463
131584,9;0,007769795
131601,4;0,007769795
131618,2;0,007768329
131634,5;0,007766862
131651,5;0,007774194
131667,7;0,007774194
131684,3;0,007756598
131700,8;0,007747801
131717,7;0,007743402
131734,8;0,007734604
131750,6;0,007727273
131767,3;0,007721408
131783,7;0,007727273
131800,2;0,00772434
131817,3;0,007706745
131833,4;0,00770088
131849,9;0,00770088
131866,5;0,00772434
131883,1;0,007734604
131899,9;0,007736071
131916,2;0,007741936
131932,8;0,0077522
131949,5;0,007725806
131966;0,007714076
131982,5;0,007718475
131999;0,007734604
132015,6;0,007760997
132032,2;0,007749267
132048,7;0,007749267
132066,1;0,007741936
132081,9;0,007741936
132098,4;0,007758065
132115;0,007758065
132131,6;0,007768329
132148,1;0,00778739
132164,8;0,007782992
132181,3;0,007796188
132197,8;0,007832845
132214,4;0,007832845
132231;0,007832845
132247,5;0,007834311
132264,1;0,007832845
132286,6;0,007810851
132297,4;0,007812317
132313,8;0,007815249
132330,5;0,007807918
132346,9;0,007796188
132363,5;0,007794722
132380;0,007791789
132396,6;0,007796188
132413,2;0,007800587
132430,2;0,00778739
132446,3;0,007784457
132462,9;0,00778739
132479,5;0,007802053
132496;0,007810851
132512,6;0,007818182
132529,2;0,007818182
132545,7;0,007831379
132562,3;0,007837243
132578,9;0,007826979
132595,5;0,007832845
132612,2;0,007856305
132628,6;0,007854839
132645,4;0,007853373
132661,7;0,007853373
132678,3;0,007872434
132694,8;0,007879766
132711,4;0,007876833
132728;0,007887097
132744,8;0,007891496
132761,1;0,007891496
132777,7;0,00788563
132794,2;0,0078739
132811,4;0,007888563
132827,5;0,007891496
132843,9;0,007912024
132860,5;0,007897361
132877,1;0,007903226
132894;0,007906158
132910,2;0,007903226
132927,5;0,007891496
132943,3;0,007923754
132959,9;0,007934018
132976,5;0,007928153
132993,2;0,007916423
133009,6;0,007916423
133026,2;0,007909091
133042,7;0,007907624
133059,7;0,007916423
133075,8;0,007919355
133092,4;0,007894428
133109;0,007863636
133125,6;0,007875367
133142,1;0,007904693
133158,7;0,007892962
133175,3;0,007876833
133192,2;0,007868036
133208,4;0,007876833
133225;0,007876833
133249,2;0,007865103
133258,1;0,007846042
133274,7;0,007840176
133291,2;0,007840176
133307,9;0,007840176
133324,4;0,007828446
133340,9;0,007816716
133357,5;0,007835777
133374;0,007837243
133390,6;0,007829912
133407,3;0,007829912
133423,8;0,007844575
133440,3;0,007844575
133456,9;0,007857772
133473,5;0,007825513
133490;0,007825513
133506,8;0,007835777
133523,2;0,007837243
133539,7;0,007840176
133556,4;0,007848973
133572,9;0,007847507
133589,8;0,007863636
133606,4;0,007868036
133622,6;0,007868036
133639,1;0,007872434
133655,7;0,007863636
133672,3;0,007860704
133688,8;0,007865103
133705,5;0,00785044
133722,1;0,007825513
133738,6;0,007837243
133755,3;0,007868036
133771,9;0,007868036
133788,2;0,007892962
133804,9;0,007900293
133821,7;0,00790176
133838;0,00789003
133854,5;0,0078739
133871,4;0,007868036
133887,7;0,007857772
133904,2;0,007872434
133920,8;0,007870967
133937,3;0,007872434
133954;0,007903226
133970,5;0,007903226
133987;0,007897361
134003,6;0,007904693
134020,4;0,007900293
134036,8;0,007898827
134053,6;0,007904693
134070,2;0,007904693
134086,4;0,007900293
134103;0,007909091
134119,5;0,007895894
134136,3;0,00788563
134152,8;0,007884164
134169,4;0,007866569
134185,8;0,007869502
134207,2;0,007851906
134219;0,007851906
134235,5;0,007851906
134252,1;0,007872434
134268,7;0,007841642
134285,2;0,00786217
134301,8;0,00786217
134318,4;0,007863636
134335,2;0,007875367
134351,5;0,007876833
134368,2;0,007875367
134385;0,00788563
134401,2;0,007891496
134417,8;0,007872434
134435;0,007857772
134451,1;0,007860704
134467,5;0,007865103
134484;0,007851906
134500,6;0,007834311
134517,5;0,007832845
134533,7;0,007834311
134550,3;0,007816716
134566,9;0,00779912
134583,4;0,007794722
134600,7;0,00779912
134616,6;0,007785924
134633,1;0,007794722
134649,7;0,007743402
134666,3;0,007737537
134682,9;0,007755132
134699,4;0,007739003
134716;0,007739003
134732,5;0,007756598
134749,1;0,007760997
134766,4;0,00776393
134782,2;0,007771261
134798,8;0,007781525
134815,4;0,007777126
134832;0,007777126
134848,5;0,007777126
134865;0,007758065
134881,6;0,007753666
134898,2;0,007769795
134914,8;0,007769795
134931,7;0,007793255
134947,9;0,007796188
134964,6;0,007793255
134981,1;0,007791789
134997,6;0,00778739
135014,2;0,007803519
135031,6;0,007812317
135047,3;0,007818182
135063,9;0,007812317
135080,4;0,007804986
135097;0,007813783
135113,6;0,00779912
135130,1;0,007788857
135146,7;0,007788857
135163,3;0,007771261
135184,5;0,007768329
135196,4;0,007769795
135213,2;0,007769795
135229,5;0,007760997
135246,1;0,007753666
135262,7;0,007747801
135279,2;0,007758065
135295,8;0,007739003
135312,4;0,007739003
135329,3;0,007739003
135345,5;0,007736071
135362,1;0,007749267
135378,9;0,007756598
135395,2;0,007778592
135411,8;0,007771261
135428,3;0,007791789
135445,1;0,007807918
135461,5;0,007807918
135478;0,007793255
135494,6;0,007790323
135511,2;0,007777126
135527,8;0,007771261
135544,3;0,007759531
135560,9;0,0077522
135577,6;0,007736071
135594,2;0,007721408
135610,6;0,007718475
135627,1;0,007722874
135643,9;0,007727273
135660,3;0,007734604
135677,2;0,007731671
135693,4;0,007731671
135710,5;0,007774194
135727;0,007781525
135743,1;0,007739003
135759,7;0,007731671
135776,2;0,007702346
135792,8;0,007695015
135809,4;0,007686217
135826,8;0,007670088
135842,5;0,007670088
135859,7;0,007667155
135876;0,007683285
135892,2;0,007683285
135908,8;0,007695015
135925,3;0,007687683
135941,9;0,007681818
135958,5;0,007681818
135975,6;0,007675953
135991,8;0,007675953
136008,2;0,00767302
136024,7;0,007655425
136041,3;0,007674487
136058;0,007670088
136074,4;0,007670088
136091,1;0,007656892
136107,6;0,007686217
136124,2;0,00768915
136140,7;0,007683285
136157,3;0,007675953
136173,8;0,007675953
136190,4;0,007655425
136207,2;0,007655425
136223,5;0,007624634
136240,4;0,007617302
136257,3;0,007620235
136273,2;0,00763783
136289,8;0,007634897
136306,3;0,007631965
136322,9;0,007615836
136340,2;0,007599707
136356,1;0,00758651
136372,6;0,00758651
136389,2;0,00759824
136405,8;0,007571848
136422,3;0,007583578
136439,1;0,007583578
136455,5;0,007589443
136472;0,007601173
136488,6;0,007602639
136505,2;0,007607038
136521,7;0,007607038
136538,3;0,007615836
136554,9;0,007648094
136571,4;0,007656892
136588,5;0,007675953
136604,5;0,007675953
136621,1;0,007683285
136637,7;0,007683285
136654,3;0,007675953
136670,8;0,007697947
136687,5;0,007703812
136704;0,007695015
136721,1;0,007659824
136737,5;0,007674487
136753,7;0,00767302
136770,2;0,00767302
136787,3;0,007690616
136803,9;0,007706745
136819,9;0,007706745
136836,5;0,007706745
136853,1;0,00771261
136869,6;0,007662757
136886,6;0,007670088
136902,8;0,007667155
136919,3;0,00764956
136936;0,007636364
136952,5;0,007636364
136969;0,007607038
136985,6;0,007605572
137002,2;0,007605572
137018,7;0,007615836
137035,3;0,007602639
137052;0,007604106
137068,7;0,007607038
137085;0,007608505
137101,6;0,007601173
137118,1;0,007605572
137134,9;0,007629032
137151,3;0,007629032
137167,8;0,007645161
137184,4;0,007639296
137201;0,00764956
137217,6;0,007656892
137234,1;0,007656892
137250,7;0,00764956
137267,3;0,007656892
137283,8;0,007652493
137300,4;0,007656892
137316,9;0,007664223
137333,5;0,00767302
137350;0,007659824
137366,6;0,007617302
137383,3;0,0076261
137399,9;0,0076261
137416,3;0,007612903
137433,1;0,007611437
137449,5;0,007612903
137466,4;0,007608505
137482,8;0,007608505
137499,2;0,007601173
137515,7;0,007634897
137532,3;0,00764956
137549;0,007687683
137565,5;0,007687683
137582;0,007667155
137598,8;0,007658358
137615,5;0,007658358
137631,8;0,007680352
137648,3;0,007681818
137664,8;0,007678886
137681,4;0,007678886
137698;0,00767302
137714,5;0,007653959
137731,1;0,00763783
137747,7;0,007646628
137764,3;0,007664223
137780,9;0,007665689
137797,4;0,00766129
137814;0,007640763
137830,5;0,007633431
137847,1;0,007627566
137863,6;0,007627566
137880,4;0,007618769
137896,8;0,007629032
137913,3;0,007629032
137930,3;0,007607038
137946,5;0,00759824
137963;0,007585044
137979,6;0,007589443
137996,2;0,007608505
138013,2;0,007602639
138029,3;0,00759824
138046,3;0,007590909
138062,7;0,007589443
138079,4;0,00759824
138095,9;0,007618769
138112,3;0,007607038
138129,1;0,00757478
138145,9;0,007602639
138162,6;0,007601173
138178,4;0,00761437
138195;0,007621701
138211,5;0,007636364
138228,1;0,007640763
138244,7;0,00766129
138261,3;0,007662757
138277,8;0,007662757
138294,6;0,007662757
138311,1;0,007620235
138327,5;0,00766129
138344,1;0,00767742
138360,6;0,00767742
138377,4;0,007693549
138393,8;0,007696481
138410,5;0,007702346
138426,9;0,007709677
138443,5;0,007714076
138460;0,007695015
138476,6;0,00767302
138493,2;0,00767302
138510,2;0,007690616
138526,3;0,007690616
138542,9;0,007686217
138559,4;0,007686217
138576;0,007623167
138592,6;0,007609971
138609,7;0,007590909
138625,7;0,007589443
138642,3;0,007587977
138659,5;0,007580645
138675,5;0,007583578
138692;0,007583578
138708,5;0,007611437
138725,1;0,007604106
138741,8;0,007590909
138758,2;0,007590909
138775,2;0,007570381
138791,4;0,00756305
138808;0,007514663
138824,5;0,00752346
138841,1;0,00752346
138857,6;0,007539589
138874,2;0,007554252
138891;0,007557185
138907,6;0,007557185
138923,9;0,007526393
138940,5;0,007538123
138957;0,007567449
138973,7;0,007567449
138990,2;0,007567449
139008,3;0,007573314
139023,3;0,007568915
139040;0,007576246
139056,4;0,007576246
139073,1;0,007583578
139089,5;0,007587977
139106,1;0,007587977
139122,8;0,007579179
139139,3;0,00756305
139155,8;0,007570381
139172,4;0,007564516
139189,5;0,007561584
139205,5;0,007561584
139222,5;0,007580645
139238,7;0,007548387
139255,2;0,007545455
139271,8;0,007530792
139288,4;0,007541056
139304,9;0,007541056
139321,5;0,007552786
139338,1;0,007546921
139354,6;0,007555719
139371,2;0,007555719
139387,8;0,007538123
139404,3;0,007514663
139420,9;0,007526393
139437,5;0,007494135
139454;0,007494135
139470,6;0,007494135
139487,2;0,007505865
139503,7;0,007480938
139520,5;0,007475073
139536,9;0,007475073
139553,5;0,007441349
139570;0,007439883
139586,6;0,007450147
139603,1;0,007451613
139619,7;0,007451613
139636,3;0,007445748
139652,8;0,007429619
139669,4;0,00742522
139686;0,007442815
139702,8;0,007448681
139719,1;0,007458944
139735,7;0,007467742
139752,3;0,007457478
139768,8;0,00747654
139785,4;0,007475073
139801,9;0,007475073
139818,7;0,007478006
139835;0,007478006
139852,3;0,007504399
139868,3;0,007533724
139884,8;0,007532258
139901,3;0,007538123
139917,9;0,007560118
139934,9;0,007560118
139951,3;0,00756305
139968;0,007560118
139984,5;0,007536657
140001,1;0,007530792
140017,8;0,007530792
140034,2;0,007504399
140051,2;0,00752346
140067,5;0,007520528
140083,9;0,007514663
140100,5;0,007510264
140117,1;0,007508798
140133,8;0,007513197
140150,2;0,007497068
140166,8;0,007510264
140183,8;0,007513197
140199,9;0,007514663
140216,5;0,007510264
140233,1;0,007529326
140249,6;0,007502933
140266,2;0,007498534
140282,7;0,007498534
140299,3;0,0075
140315,9;0,00748827
140332,4;0,007494135
140349;0,0075
140365,6;0,007497068
140382,3;0,0075
140398,7;0,007507332
140415,4;0,007502933
140431,8;0,007479472
140448,4;0,007479472
140465,3;0,007466276
140481,5;0,007464809
140498,1;0,007513197
140514,9;0,007489736
140531,2;0,007501466
140547,8;0,007494135
140565;0,007494135
140581,5;0,007527859
140597,5;0,007532258
140614,3;0,007555719
140630,6;0,007579179
140647,2;0,007579179
140663,8;0,007583578
140680,4;0,007583578
140697,2;0,007590909
140713,5;0,007609971
140730;0,007624634
140746,7;0,007642229
140763,6;0,007642229
140780,3;0,007667155
140796,3;0,00767302
140812,9;0,00768915
140829,4;0,00770088
140846;0,00770088
140862,9;0,007717009
140879,2;0,007714076
140895,7;0,007705279
140912,3;0,007715543
140928,8;0,007733138
140945,4;0,007746335
140962;0,007756598
140978,8;0,007756598
140995,1;0,007755132
141011,8;0,007727273
141028,2;0,007743402
141044,8;0,007743402
141061,4;0,007760997
141077,9;0,007756598
141094,8;0,007762463
141111,7;0,007762463
141127,6;0,007769795
141144,3;0,007756598
141160,8;0,007760997
141177,3;0,007731671
141193,9;0,007749267
141210,5;0,007746335
141227,7;0,007768329
141243,6;0,00776393
141260,2;0,007824047
141276,7;0,007818182
141293,7;0,007815249
141309,9;0,007812317
141326,5;0,007824047
141343;0,007831379
141359,6;0,007831379
141376,3;0,007844575
141392,7;0,007831379
141409,3;0,007834311
141425,8;0,007853373
141442,6;0,007840176
141459;0,007824047
141476,1;0,007831379
141492,1;0,007846042
141508,8;0,00786217
141525,2;0,007851906
141542,4;0,007831379
141558,7;0,007840176
141575;0,007821115
141591,5;0,007832845
141608,1;0,007822581
141624,7;0,007815249
141641,2;0,007819648
141658,1;0,007815249
141674,6;0,007815249
141691;0,00779912
141707,5;0,00778739
141724,1;0,00778739
141740,6;0,007765396
141757,2;0,007768329
141773,7;0,007794722
141790,4;0,007831379
141806,9;0,00783871
141823,4;0,00783871
141840;0,007831379
141856,6;0,007818182
141873,1;0,007810851
141889,9;0,007810851
141906,8;0,007810851
141922,8;0,007802053
141939,4;0,007784457
141956;0,007813783
141972,5;0,007813783
141989,1;0,007816716
142006,2;0,007809384
142022,2;0,007807918
142038,8;0,007809384
142055,4;0,007809384
142071,9;0,007825513
142088,5;0,007829912
142105,1;0,007824047
142121,6;0,007824047
142138,3;0,00783871
142154,8;0,007868036
142171,3;0,007832845
142187,9;0,007822581
142204,5;0,007782992
142221;0,007782992
142237,6;0,007759531
142254,2;0,007750733
142270,7;0,007749267
142287,3;0,007750733
142303,9;0,007750733
142320,5;0,007766862
142337;0,007750733
142353,6;0,0077522
142370,1;0,0077522
142386,7;0,007766862
142403,3;0,007759531
142420,2;0,007744868
142437;0,007788857
142453;0,00779912
142469,5;0,007750733
142486,1;0,007772727
142502,7;0,007794722
142519,2;0,007804986
142535,8;0,007790323
142552,4;0,007794722
142568,9;0,007785924
142585,6;0,007785924
142602,1;0,0077522
142618,8;0,007756598
142635,5;0,007739003
142651,8;0,007737537
142668,5;0,007737537
142684,9;0,007749267
142701,5;0,007703812
142718;0,007709677
142734,6;0,007709677
142751,5;0,007703812
142767,7;0,007702346
142784,3;0,00771261
142800,9;0,007706745
142817,4;0,007706745
142834;0,007706745
142854,2;0,007699414
142867,4;0,007686217
142883,7;0,007690616
142901,3;0,007708211
142916,8;0,00770088
142933,7;0,007668622
142950,1;0,007642229
142966,5;0,007633431
142983,1;0,007608505
142999,7;0,007608505
143016,2;0,007592375
143032,8;0,00759824
143049,4;0,007590909
143066;0,007605572
143082,6;0,007618769
143099,4;0,007643695
143115,6;0,007652493
143132,2;0,007658358
143149,5;0,00766129
143165,3;0,007675953
143181,9;0,007671555
143198,9;0,007665689
143215,5;0,00767742
143231,8;0,007652493
143248,3;0,007653959
143264,7;0,007653959
143281,3;0,00763783
143297,9;0,007653959
143314,6;0,007646628
143331;0,007630499
143347,6;0,007630499
143364,1;0,007612903
143381;0,007601173
143397,5;0,007627566
143413,8;0,007627566
143430,5;0,007631965
143447;0,007630499
143463,5;0,007643695
143480,5;0,007620235
143496,7;0,00759824
143513,8;0,007601173
143529,8;0,007618769
143546,5;0,007624634
143562,9;0,007607038
143579,5;0,007607038
143596,1;0,007648094
143612,6;0,007655425
143629,6;0,007665689
143646,2;0,007665689
143662,3;0,007674487
143678,9;0,007678886
143695,7;0,007695015
143712,2;0,007695015
143728,6;0,007697947
143745,2;0,007711144
143761,7;0,007708211
143786,1;0,007659824
143795,2;0,007643695
143811,4;0,007667155
143828;0,007674487
143844,6;0,00768915
143861,1;0,007680352
143878;0,007680352
143894,3;0,007709677
143910,9;0,007709677
143927,4;0,007714076
143944;0,007718475
143960,5;0,007668622
143977,1;0,007667155
143993,8;0,007674487
144010,5;0,00767742
144026,8;0,007668622
144043,4;0,007692082
144060,3;0,007702346
144076,5;0,007684751
144093,2;0,007692082
144110,2;0,007653959
144126,2;0,007653959
144142,8;0,007618769
144159,3;0,0076261
144175,9;0,007624634
144192,5;0,007631965
144209;0,007631965
144225,7;0,007656892
144242,2;0,007653959
144258,7;0,007683285
144275,6;0,007687683
144291,9;0,007687683
144308,4;0,007708211
144325;0,007687683
144341,6;0,007670088
144358,3;0,007653959
144374,7;0,007653959
144391,5;0,007653959
144407,8;0,007651026
144424,9;0,007640763
144441,1;0,007612903
144457,5;0,007612903
144474,1;0,00761437
144490,8;0,007580645
144507,3;0,007576246
144523,8;0,007576246
144540,4;0,007560118
144557;0,007545454
144573,5;0,007549854
144590,1;0,007555719
144606,7;0,007555719
144623,3;0,007529326
144640,3;0,007554252
144656,6;0,007546921
144673;0,00755132
144689,7;0,007539589
144706,1;0,007538123
144722,6;0,007519062
144739,4;0,007510264
144756,2;0,007473607
144772,3;0,007457478
144788,9;0,007444282
144805,9;0,007438417
144822;0,007442815
144838,6;0,007428152
144855,1;0,00741349
144872,3;0,00741349
144888,3;0,007387097
144904,8;0,007404692
144922,1;0,007404692
144938;0,007409091
144954,5;0,007422287
144971,3;0,007428152
144987,9;0,007428152
145004,2;0,007400293
145020,9;0,007428152
145037,4;0,007453079
145053,9;0,007434017
145070,5;0,007412023
145087,1;0,007412023
145104,3;0,007388563
145120,2;0,007372434
145136,8;0,007372434
145154;0,007385631
145170,1;0,007382698
145187;0,007365103
145203;0,007370968
145219,6;0,007370968
145236,2;0,007373901
145252,7;0,007341642
145269,3;0,007366569
145285,9;0,007373901
145302,4;0,007390029
145319,4;0,007381232
145335,7;0,007381232
145352,2;0,007381232
145369,1;0,007414956
145385,3;0,00741349
145401,8;0,007392962
145418,4;0,007390029
145435;0,007403226
145451,5;0,007397361
145468,1;0,007395895
145484,7;0,007395895
145501,4;0,007406158
145517,8;0,007431085
145534,4;0,007441349
145550,9;0,007432552
145567,5;0,007441349
145584,1;0,007441349
145600,6;0,007447214
145617,2;0,007438417
145634;0,007435484
145650,9;0,007461877
145666,9;0,007483871
145683,6;0,007498534
145700;0,007498534
145716,6;0,00747654
145733,2;0,007456012
145749,7;0,007450147
145766,3;0,007453079
145782,9;0,007451613
145799,4;0,007450147
145816,1;0,007439883
145832,6;0,007441349
145849,1;0,007417889
145865,7;0,007439883
145882,3;0,007410557
145899;0,007410557
145915,7;0,007392962
145932;0,007409091
145948,5;0,007409091
145965,3;0,00742522
145981,7;0,007431085
145998,2;0,007426686
146014,8;0,007439883
146031,4;0,007426686
146047,9;0,007379766
146064,7;0,007375367
146081,1;0,00736217
146097,6;0,00736217
146114,2;0,00740176
146131,2;0,007407625
146147,7;0,007458944
146163,9;0,007458944
146180,5;0,007458944
146197,7;0,007466276
146213,6;0,007466276
146230,2;0,007475073
146246,8;0,007491203
146263,3;0,007495601
146279,9;0,007479472
146296,4;0,007467742
146313,5;0,007486803
146329,6;0,007486803
146346,7;0,007492669
146362,7;0,007526393
146380,2;0,007521994
146396,3;0,007492669
146412,4;0,007495601
146429;0,007520528
146445,5;0,007520528
146462,1;0,007516129
146478,7;0,007564516
146495,2;0,007561584
146511,8;0,007561584
146528,5;0,00755132
146545;0,007577713
146561,7;0,007624634
146578,2;0,007609971
146595;0,007620235
146611,2;0,007593842
146627,8;0,007593842
146644,3;0,007552786
146660,9;0,007580645
146677,5;0,007589443
146694,1;0,007592375
146710,6;0,007590909
146727,2;0,00759824
146744,1;0,007624634
146760,3;0,007608505
146777;0,007608505
146793,4;0,007668622
146810,2;0,007674487
146826,5;0,007674487
146843,1;0,007664223
146859,7;0,007664223
146876,3;0,007678886
146892,8;0,007709677
146909,4;0,007690616
146926;0,007686217
146942,5;0,007708211
146959,1;0,007721408
146975,7;0,007721408
146992,2;0,007722874
147008,8;0,007771261
147025,5;0,007733138
147041,9;0,007725806
147058,5;0,007725806
147075,1;0,007718475
147091,6;0,007717009
147108,6;0,007706745
147124,8;0,007709677
147141,3;0,007709677
147158;0,007722874
147174,6;0,007719941
147191;0,007718475
147207,6;0,007718475
147224,2;0,007711144
147240,7;0,007750733
147257,3;0,00778739
147273,9;0,007778592
147290,8;0,007747801
147307,1;0,007750733
147323,8;0,007758065
147340,2;0,007758065
147356,7;0,007753666
147373,3;0,007747801
147390;0,007760997
147406,4;0,007780059
147423;0,007777126
147439,5;0,007765396
147456,1;0,007766862
147472,7;0,007790323
147490;0,007804986
147506;0,007809384
147522,7;0,007807918
147538,9;0,007768329
147555,5;0,00777566
147572,1;0,007768329
147588,7;0,007741936
147606;0,007714076
147621,8;0,007714076
147638,4;0,007715543
147655;0,007680352
147671,5;0,007640763
147688,1;0,007640763
147704,7;0,007674487
147721,5;0,007668622
147737,8;0,007668622
147754,4;0,007668622
147771;0,00767302
147787,5;0,007671555
147804,1;0,007678886
147820,6;0,007678886
147837,2;0,007711144
147853,8;0,007703812
147870,3;0,007709677
147886,9;0,007717009
147903,5;0,007721408
147920;0,007749267
147936,6;0,007722874
147953,2;0,007714076
147969,7;0,007714076
147986,3;0,007765396
148002,9;0,007756598
148019,4;0,007771261
148036;0,007784457
148052,6;0,007784457
148069,2;0,00779912
148085,7;0,007794722
148102,3;0,007794722
148118,9;0,007790323
148135,6;0,007797654
148152;0,007785924
148168,5;0,007769795
148185,1;0,007705279
148201,7;0,007664223
148218,3;0,007664223
148234,8;0,007633431
148251,7;0,007659824
148268,6;0,007631965
148284,6;0,0076261
148301,1;0,00763783
148318;0,007623167
148334,2;0,007615836
148350,8;0,007623167
148367,3;0,00761437
148383,9;0,007623167
148400,5;0,007624634
148417;0,007636364
148433,6;0,0076261
148450,2;0,007612903
148466,7;0,007596774
148483,3;0,007599707
148502,8;0,007602639
148517,3;0,007576246
148533,5;0,007570381
148549,6;0,007560118
148566,4;0,007548387
148583,3;0,007555719
148599,3;0,007568915
148616,3;0,007582112
148632,4;0,007571848
148649;0,007571848
148665,5;0,007571848
148682,1;0,007558651
148698,7;0,007554252
148715,7;0,007589443
148731,8;0,007589443
148748,4;0,007582112
148765;0,007582112
148781,5;0,007595308
148798,1;0,00758651
148814,7;0,007564516
148831,2;0,00758651
148847,8;0,007596774
148864,5;0,007564516
148880,9;0,00757478
148897,5;0,007579179
148914,1;0,00758651
148930,6;0,007605572
148947,4;0,007585044
148964,2;0,007589443
148980,3;0,007587977
148996,9;0,007589443
149013,4;0,007573314
149030;0,007573314
149046,6;0,007573314
149063,1;0,007582112
149079,7;0,007592375
149096,6;0,007589443
149113,2;0,007602639
149129,4;0,007577713
149146,1;0,007583578
149162,7;0,007604106
149179,9;0,007604106
149195,7;0,007609971
149212,3;0,007609971
149228,8;0,007592375
149245,4;0,007582112
149261,9;0,007536657
149278,5;0,007552786
149295,8;0,007554252
149311,6;0,007548387
149328,2;0,007538123
149344,8;0,007532258
149361,3;0,007535191
149377,9;0,00755132
149394,5;0,007539589
149411,1;0,007536657
149427,6;0,007535191
149444,2;0,007521994
149460,8;0,007495601
149477,3;0,0075
149494;0,00752346
149510,4;0,00752346
149527,7;0,007510264
149543,6;0,007526393
149560,8;0,007536657
149576,9;0,007536657
149593,3;0,007536657
149610,1;0,007570381
149626,4;0,007560118
149643,6;0,007535191
149659,5;0,007557185
149676,2;0,007567449
149693;0,007546921
149709,3;0,007536657
149725,8;0,007539589
149742,4;0,007539589
149758,9;0,007539589
149775,5;0,007527859
149792,1;0,007529326
149808,8;0,007517595
149825,2;0,007524927
149842,5;0,007491203
149858,3;0,007486803
149874,9;0,007485338
149891,5;0,007507332
149908;0,007501466
149925;0,007469208
149941,2;0,007469208
149957,7;0,00747654
149974,6;0,007453079
149991,3;0,007410557
150007,8;0,007406158
150024;0,007407625
150040,6;0,007420821
150057,2;0,007428152
150073,7;0,007428152
150090,3;0,007419355
150106,8;0,007423754
150123,4;0,007420821
150140;0,007431085
150156,6;0,007441349
150173,1;0,007475073
150190,1;0,007461877
150206,2;0,007463343
150222,8;0,007454546
150239,4;0,007442815
150256,1;0,007444282
150272,6;0,007475073
150289,1;0,00747654
150305,6;0,007486803
150322,4;0,007470675
150339,1;0,007473607
150355,5;0,007486803
150371,9;0,007486803
150388,7;0,007478006
150405;0,007495601
150421,6;0,007480938
150438,2;0,007479472
150455,1;0,00751173
150471,3;0,007527859
150487,9;0,007510264
150504,5;0,007510264
150521;0,007521994
150537,6;0,007535191
150554,2;0,007542522
150570,7;0,007539589
150588;0,007549854
150604,5;0,007548387
150620,5;0,007548387
150637,1;0,00756305
150653,5;0,007592375
150670,1;0,007592375
150687,3;0,007599707
150703,8;0,007599707
150719,8;0,007589443
150736,4;0,00757478
150752,9;0,007545454
150769,5;0,007542522
150786,5;0,007560118
150802,6;0,007564516
150819,2;0,007564516
150835,8;0,007530792
150852,4;0,007529326
150868,9;0,007545454
150885,5;0,00756305
150902,3;0,007565983
150918,6;0,007532258
150935,2;0,007519062
150951,7;0,007517595
150968,4;0,00752346
150985,1;0,007539589
151001,6;0,007530792
151018,3;0,007535191
151035,1;0,007524927
151051,1;0,007524927
151067,7;0,007492669
151084,3;0,007480938
151100,8;0,00744868
151117,5;0,007450147
151134,2;0,007456012
151150,5;0,007439883
151167,1;0,007441349
151183,7;0,007441349
151200,6;0,007419355
151217,3;0,007426686
151233,5;0,007419355
151249,9;0,007404692
151266,5;0,007353372
151283,4;0,007348974
151299,7;0,007348974
151316,6;0,007343109
151332,8;0,007344575
151349,3;0,007344575
151365,9;0,00732698
151382,5;0,007334311
151399,6;0,007343109
151416,2;0,007366569
151432,2;0,007370968
151449,1;0,007356305
151465,3;0,007340176
151481,9;0,007319648
151498,5;0,007293255
151515;0,007288856
151531,6;0,007288856
151548,2;0,007284458
151565,8;0,007259531
151581,3;0,007234604
151597,9;0,007262463
151614,4;0,007280059
151631;0,007250733
151647,5;0,007256598
151664,1;0,007256598
151680,7;0,007240469
151697,2;0,00722434
151713,8;0,007234604
151730,6;0,007280059
151746,9;0,007280059
151763,7;0,007278592
151780,1;0,007302053
151796,6;0,007318182
151813,3;0,007318182
151830;0,007304986
151846,3;0,007299121
151862,9;0,007313783
151879,5;0,007297654
151896,1;0,007296188
151912,6;0,007313783
151929,2;0,007310851
151945,7;0,007318182
151962,3;0,007318182
151979,2;0,007310851
151995,9;0,007310851
152012;0,007319648
152028,6;0,007312317
152045,1;0,007302053
152061,9;0,007322581
152078,3;0,007343109
152094,8;0,007357772
152111,4;0,00735044
152128;0,007356305
152144,5;0,007356305
152161,2;0,007354839
152177,8;0,007344575
152194,3;0,007343109
152211,4;0,007354839
152227,4;0,007341642
152243,9;0,007321115
152260,5;0,007321115
152282,2;0,007299121
152293,8;0,007306452
152310,3;0,007307918
152326,8;0,007290323
152343,6;0,007313783
152359,9;0,007313783
152376,8;0,007313783
152393;0,007307918
152409,6;0,007307918
152426,2;0,007306452
152442,7;0,007269795
152459,3;0,007262463
152475,9;0,007244868
152492,5;0,007233138
152509;0,007228739
152525,6;0,007241935
152542,1;0,007228739
152558,7;0,007225806
152575,4;0,007228739
152591,8;0,007228739
152608,7;0,00721261
152625;0,007231672
152641,5;0,007231672
152658,1;0,007239003
152674,7;0,007243402
152691,4;0,007208211
152707,8;0,007208211
152724,4;0,00721261
152740,9;0,007231672
152758,2;0,007231672
152774,1;0,007262463
152791,3;0,007255132
152807,2;0,007250733
152823,8;0,007297654
152840,9;0,007297654
152857,2;0,007309384
152873,5;0,007274194
152890;0,007290323
152906,6;0,007331378
152939,5;0,007332845
152956,2;0,00735044
152972,6;0,00735044
152989,2;0,007322581
153005,7;0,007324047
153022,5;0,007346041
153038,9;0,007344575
153055,7;0,007356305
153072,2;0,007373901
153088,6;0,007379766
153105,6;0,007384164
153121,7;0,007419355
153138,4;0,007450147
153154,8;0,007453079
153171,4;0,007460411
153188;0,007475073
153204,5;0,007486803
153221,1;0,007461877
153237,7;0,007473607
153254,2;0,007485338
153270,8;0,007485338
153287,4;0,007472141
153304;0,007502933
153320,5;0,007520528
153337,1;0,00752346
153353,6;0,007520528
153370,2;0,007527859
153386,8;0,007513197
153403,8;0,007516129
153420,2;0,007516129
153436,5;0,007521994
153454;0,007561584
153469,6;0,007552786
153486,4;0,007587977
153502,7;0,007587977
153519,3;0,00757478
153536,4;0,007582112
153552,4;0,007589443
153569,1;0,00759824
153585,6;0,00759824
153602,6;0,007602639
153618,7;0,007602639
153635,6;0,007595308
153651,8;0,0076261
153668,4;0,00763783
153685;0,007630499
153701,5;0,007630499
153718,1;0,007634897
153735,3;0,0076261
153751,2;0,007630499
153767,8;0,007629032
153784,4;0,007643695
153800,9;0,007631965
153817,5;0,007648094
153834,1;0,007665689
153850,6;0,007680352
153867,3;0,007705279
153883,8;0,007705279
153900,3;0,007719941
153916,9;0,007719941
153933,5;0,007696481
153950,2;0,007706745
153967,1;0,007722874
153983,3;0,007717009
153999,7;0,007722874
154016,3;0,007722874
154033,4;0,0077522
154050;0,007734604
154066;0,007736071
154082,6;0,007730206
154099,1;0,007727273
154116,6;0,007746335
154132,3;0,007780059
154152,5;0,007788857
154165,4;0,007766862
154182,2;0,007766862
154198,9;0,007766862
154215,2;0,007759531
154231,9;0,007837243
154248,5;0,007837243
154265,1;0,007837243
154281,4;0,007859237
154297,9;0,007875367
154314,5;0,007869502
154331,5;0,007872434
154347,6;0,007884164
154364,5;0,007875367
154380,8;0,007872434
154397,3;0,00788563
154413,9;0,00788563
154430,5;0,007912024
154447,2;0,007912024
154463,6;0,007951613
154480,3;0,007953079
154496,7;0,007986804
154513,3;0,007986804
154529,9;0,007969208
154546,8;0,007972141
154563,8;0,007972141
154579,6;0,008013196
154596,3;0,008030792
154612,7;0,008014663
154629,3;0,008008798
154645,8;0,008020528
154662,4;0,008020528
154679;0,008002933
154696;0,008005865
154712,3;0,007998534
154728,7;0,008007332
154745,2;0,008007332
154761,8;0,007969208
154779,4;0,007953079
154795,1;0,007922287
154811,5;0,007922287
154828,1;0,007935484
154844,9;0,007870967
154861,5;0,00789003
154877,9;0,007881232
154894,3;0,007881232
154910,9;0,007828446
154927,5;0,007824047
154944,1;0,007816716
154961,2;0,007806452
154977,2;0,007810851
154993,7;0,007822581
155010,3;0,007806452
155026,9;0,007809384
155043,4;0,007791789
155060,6;0,00778739
155076,6;0,007788857
155093,1;0,00777566
155109,7;0,00776393
155126,3;0,00776393
155143,6;0,007728739
155159,6;0,007728739
155176;0,007722874
155192,5;0,007721408
155209,1;0,007711144
155226,2;0,007693549
155242,2;0,007686217
155258,8;0,007687683
155275,4;0,007703812
155292,7;0,007737537
155308,7;0,007756598
155325,1;0,007728739
155341,6;0,007728739
155358,2;0,007714076
155375,2;0,007721408
155391,3;0,007709677
155407,9;0,00767742
155424,5;0,00767742
155441;0,007690616
155457,6;0,007656892
155474,3;0,007662757
155491,2;0,007652493
155507,3;0,00763783
155524;0,007621701
155540,6;0,007605572
155557;0,007582112
155573,6;0,007579179
155590,9;0,00757478
155606,7;0,007565983
155623,3;0,007567449
155639,8;0,007565983
155656,4;0,007554252
155673,1;0,007561584
155689,5;0,007554252
155706,1;0,007554252
155723,1;0,007561584
155739,5;0,007539589
155756,6;0,007513197
155772,4;0,007485338
155788,9;0,007542522
155805,6;0,007542522
155822,1;0,007517595
155839,4;0,007529326
155855,2;0,007475073
155871,8;0,007410557
155888,3;0,007414956
155904,9;0,007397361
155921,5;0,007406158
155938,7;0,007431085
155954,6;0,00742522
155971,6;0,00741349
155987,7;0,007432552
156004,3;0,00742522
156020,9;0,007407625
156037,5;0,007407625
156054;0,007444282
156070,6;0,007426686
156087,6;0,007414956
156103,7;0,007398827
156120,3;0,007390029
156136,8;0,007378299
156153,4;0,007378299
156170,3;0,007391496
156186,5;0,007400293
156203,1;0,007373901
156219,7;0,007373901
156236,6;0,007357772
156252,9;0,007357772
156269,4;0,007322581
156285,9;0,007297654
156302,5;0,007297654
156319,1;0,007309384
156336;0,007306452
156352,3;0,007306452
156368,8;0,007309384
156385,3;0,007296188
156401,9;0,007288856
156418,5;0,007266862
156435,3;0,007266862
156451,6;0,007262464
156468,2;0,00726393
156484,7;0,007239003
156501,7;0,007222874
156517,9;0,007193549
156534,7;0,00714956
156551,1;0,007156892
156567,6;0,007195015
156584,1;0,007171554
156601,1;0,007178886
156617,3;0,007186217
156633,8;0,007190616
156650,4;0,007173021
156667,2;0,007173021
156683,5;0,007197947
156700,8;0,007218475
156716,7;0,007195015
156734;0,007195015
156750;0,007156892
156767;0,007159824
156782,9;0,007183284
156799,5;0,00720088
156816,3;0,00720088
156832,6;0,007211144
156849,2;0,007206745
156865,8;0,007195015
156882,3;0,007205279
156899,3;0,007215543
156915,5;0,007228739
156932;0,007250733
156948,6;0,00723607
156965,2;0,007228739
156990,3;0,007239003
156998,3;0,00720088
157015,2;0,007167155
157031,8;0,007177419
157048;0,007180352
157065,1;0,007181818
157081,1;0,007218475
157097,8;0,007214076
157114,4;0,007214076
157130,8;0,007233138
157147,4;0,007280059
157164;0,007265396
157180,7;0,007262463
157197,3;0,007241935
157213,7;0,007271261
157230,2;0,007281525
157246,8;0,007272727
157263,4;0,007272727
157280,3;0,00726393
157296,5;0,0072522
157313,1;0,007249267
157329,6;0,007249267
157346,2;0,00726393
157362,8;0,007241935
157379,4;0,007260997
157396;0,007271261
157412,5;0,007269795
157429,4;0,007285924
157445,6;0,007274194
157462,2;0,007290323
157478,7;0,007290323
157495,6;0,007302053
157511,9;0,007351906
157528,4;0,007353372
157545;0,007337243
157561,6;0,007368035
157578,1;0,007368035
157595;0,007417889
157611,3;0,007404692
157627,8;0,007398827
157644,4;0,00742522
157661,2;0,007419355
157677,9;0,007407625
157694,1;0,007407625
157710,7;0,007395895
157727,2;0,007395895
157743,8;0,007387097
157760,4;0,007385631
157776,9;0,007382698
157793,5;0,007420821
157810,1;0,007403226
157826,8;0,007406158
157843,2;0,007409091
157859,8;0,007397361
157876,6;0,007406158
157892,9;0,007406158
157909,5;0,007414956
157927,8;0,007426686
157942,6;0,007431085
157959,5;0,007409091
157975,7;0,007382698
157992,3;0,007406158
158008,9;0,007406158
158025,9;0,00740176
158042;0,007442815
158058,6;0,00740176
158075,2;0,007400293
158091,7;0,007404692
158108,3;0,00741349
158124,8;0,007420821
158141,7;0,007442815
158158;0,007439883
158175;0,007469208
158191,1;0,007469208
158207,7;0,007485338
158224,8;0,007485338
158240,8;0,007485338
158257,4;0,007516129
158273,9;0,007535191
158291;0,007539589
158307,2;0,007554252
158323,8;0,007554252
158340,2;0,007565983
158356,9;0,007554252
158373,4;0,007514663
158389,9;0,007514663
158406,5;0,007524927
158423;0,007567449
158439,7;0,007548387
158456,2;0,007548387
158472,8;0,00758651
158489,5;0,00758651
158505,9;0,007582112
158522,4;0,007629032
158539;0,00764956
158555,6;0,0076261
158572,1;0,007604106
158588,7;0,007611437
158605,6;0,00759824
158622;0,00757478
158638,4;0,007576246
158655;0,007576246
158671,6;0,00761437
158688,1;0,007605572
158704,7;0,007565983
158721,3;0,007596774
158737,8;0,007615836
158754,4;0,007617302
158770,9;0,007623167
158787,5;0,00758651
158804,1;0,007602639
158820,6;0,007590909
158837,4;0,007576246
158853,8;0,007576246
158874,9;0,007577713
158887,6;0,007593842
158903,5;0,007595308
158920;0,007576246
158936,6;0,007558651
158953,3;0,007560117
158970,2;0,00756305
158986,3;0,007604106
159002,9;0,007604106
159019,4;0,007643695
159036;0,007656892
159052,6;0,007656892
159069,6;0,007656892
159085,7;0,007624634
159102,3;0,007629032
159118,8;0,00763783
159135,4;0,007653959
159152;0,007646628
159168,5;0,007639296
159185,1;0,007640763
159202,8;0,007629032
159218,2;0,007642229
159235,2;0,007642229
159251,5;0,007652493
159268,2;0,007662757
159284,7;0,007667155
159301,3;0,007651026
159317,6;0,007651026
159334,2;0,007653959
159351,2;0,007634897
159367,3;0,007643695
159383,9;0,007643695
159400,5;0,007643695
159417,1;0,007648094
159433,7;0,007640763
159450,2;0,007607038
159466,9;0,007612903
159483,3;0,007612903
159499,9;0,007639296
159516,4;0,007576246
159533;0,00761437
159549,6;0,007629032
159566,2;0,007634897
159583,4;0,007636364
159599,3;0,007621701
159616,1;0,007621701
159632,4;0,007620235
159649,2;0,007620235
159665,6;0,007595308
159682,4;0,007618769
159698,9;0,00764956
159715,4;0,007671555
159731,8;0,007671555
159748,4;0,007697947
159764,9;0,007695015
159781,5;0,007706745
159798,2;0,007693549
159814,9;0,007693549
159833,3;0,00771261
159847,8;0,007755132
159864,3;0,00777566
159880,9;0,00777566
159897,5;0,007746334
159914;0,007759531
159930,8;0,007768329
159947,2;0,007785924
159964,2;0,007784457
159980,3;0,007759531
159996,9;0,007758065
160013,5;0,007733138
160030,2;0,007733138
160046,5;0,007734604
160063,4;0,007737537
160079,7;0,007743402
160096,3;0,007725806
160113,3;0,007714076
160129,4;0,007719941
160146,4;0,007697947
160162,5;0,007687683
160179,1;0,007692082
160195,8;0,007692082
160212,2;0,007658358
160228,8;0,007631965
160245,4;0,00764956
160262;0,007648094
160278,6;0,007648094
160295,1;0,007627566
160312,1;0,007634897
160328,2;0,007629032
160345,5;0,00761437
160361,3;0,007617302
160377,9;0,007667155
160395,3;0,007642229
160411,1;0,007670088
160427,6;0,007670088
160444,2;0,00768915
160461;0,007681818
160477,3;0,007681818
160493,9;0,007675953
160510,4;0,007653959
160527;0,007633431
160543,9;0,007633431
160560,1;0,007627566
160576,7;0,007612903
160593,3;0,007596774
160609,8;0,007595308
160626,4;0,007595308
160643,9;0,007568915
160659,5;0,007568915
160676,4;0,007555719
160692,7;0,007533724
160709,2;0,007533724
160726,2;0,007527859
160742,4;0,007532258
160758,9;0,00752346
160775,5;0,007552786
160792,2;0,007567449
160808,7;0,00755132
160825,2;0,00755132
160841,8;0,007565983
160858,4;0,007571848
160874,9;0,007582112
160891,6;0,007587977
160908;0,007599707
160924,6;0,007599707
160941,2;0,007599707
160957,7;0,007599707
160974,3;0,007612903
160991;0,007585044
161007,5;0,007558651
161024;0,007558651
161040,6;0,007560118
161057,3;0,007585044
161073,7;0,007587977
161090,3;0,00758651
161106,8;0,00758651
161123,4;0,007543989
161140;0,007555719
161156,5;0,007564516
161173,1;0,007557185
161189,8;0,007557185
161206,2;0,007552786
161222,8;0,007546921
161239,6;0,007538123
161256;0,007543989
161272,5;0,007543989
161289,1;0,007527859
161305,6;0,00752346
161322,2;0,007502933
161338,8;0,007508798
161355,4;0,007507332
161371,9;0,007498534
161388,5;0,007502933
161405,5;0,00748827
161421,6;0,007486803
161438,4;0,007492669
161469,4;0,007491203
161486;0,007461877
161502,6;0,007466276
161519,1;0,007467742
161535,6;0,007467742
161552,2;0,007464809
161568,9;0,007464809
161585,3;0,007429619
161601,9;0,007429619
161618,6;0,007456012
161635,6;0,007420821
161651,6;0,007420821
161668,7;0,007378299
161684,7;0,007406158
161702;0,007397361
161717,9;0,007391496
161734,5;0,007384164
161751,3;0,007356305
161767,9;0,007331378
161784,2;0,007331378
161801;0,007325513
161817,3;0,007285924
161833,8;0,007246335
161850,5;0,007244868
161867,6;0,007244868
161883,8;0,007244868
161900,1;0,007259531
161916,7;0,00726393
161933,2;0,00726393
161950,2;0,007214076
161966,4;0,007243402
161982,9;0,007240469
161999,6;0,007222874
162016,1;0,007218475
162032,6;0,00720088
162049,2;0,007180352
162065,8;0,007168622
162082,3;0,007171554
162098,9;0,007168622
162115,5;0,007142229
162132;0,00714956
162148,6;0,007130499
162165,6;0,007134898
162181,9;0,007139296
162198,3;0,007127566
162214,9;0,007127566
162231,4;0,007127566
162248;0,007124634
162265,3;0,007178886
162281,1;0,007175953
162297,7;0,007243402
162314,3;0,007260997
162331,2;0,007225806
162347,8;0,007203812
162364;0,007222874
162380,5;0,007243402
162397,7;0,007244868
162413,7;0,007230205
162430,2;0,007214076
162446,8;0,007243402
162464;0,007250733
162479,9;0,007244868
162496,5;0,007244868
162513,1;0,007230205
162530,3;0,007239003
162546,2;0,007244868
162562,8;0,007265396
162579,8;0,007266862
162595,9;0,007255132
162612,5;0,007271261
162629,7;0,007296188
162645,6;0,007297654
162662,2;0,007300586
162678,7;0,007313783
162695,5;0,007313783
162711,9;0,007312317
162728,6;0,007288856
162745;0,007325513
162762,2;0,007304986
162778,1;0,007304986
162794,7;0,007269795
162811,3;0,007272727
162827,8;0,007256598
162844,6;0,007256598
162861;0,00726393
162877,6;0,00726393
162894,1;0,007255132
162910,7;0,007269795
162927,2;0,007265396
162943,8;0,007265396
162960,4;0,007278592
162976,9;0,007253666
162993,5;0,007239003
163010,1;0,007246335
163026,6;0,007246335
163043,2;0,007206745
163059,8;0,00721261
163076,3;0,007215543
163092,9;0,007249267
163109,5;0,0072522
163126,1;0,007253666
163142,6;0,007253666
163159,2;0,007233138
163175,7;0,007230205
163192,4;0,007258065
163208,9;0,007265396
163225,4;0,007244868
163242;0,007250733
163258,6;0,0072478
163275,1;0,00723607
163291,7;0,007228739
163308,3;0,007239003
163324,8;0,007246335
163341,9;0,007274194
163358,2;0,007274194
163374,9;0,007272727
163391,1;0,00728739
163407,7;0,007309384
163424,3;0,007354839
163440,8;0,007385631
163457,7;0,007379766
163473,9;0,007392962
163490,6;0,007392962
163507,5;0,007394428
163524,1;0,007375367
163540,6;0,007417889
163556,8;0,007445748
163573,3;0,007420821
163589,9;0,007420821
163607,3;0,007464809
163623;0,007478006
163639,6;0,007486803
163656,2;0,007501466
163672,7;0,007467742
163689,3;0,007483871
163705,9;0,007480938
163722,5;0,007480938
163739;0,007510264
163755,6;0,00751173
163772,1;0,007513197
163788,7;0,007513197
163805,5;0,007491203
163821,8;0,007486803
163838,4;0,007486803
163855,1;0,007483871
163871,5;0,007478006
163888,5;0,007497068
163904,7;0,007497068
163921,2;0,007483871
163937,8;0,007486803
163954,4;0,007483871
163971,1;0,007479472
163987,5;0,007482405
164004,1;0,007508798
164020,6;0,007532258
164037,2;0,007538123
164053,8;0,007541056
164070,3;0,007542522
164086,9;0,007576246
164103,9;0,007582112
164120;0,007582112
164136,6;0,007564516
164153,2;0,00757478
164169,7;0,007567449
164186,3;0,007555719
164203,1;0,007567449
164219,4;0,007536657
164236;0,007552786
164253,1;0,007542522
164269,1;0,007533724
164286,1;0,007526393
164302,4;0,007456012
164318,9;0,007460411
164335,6;0,007450147
164352;0,007441349
164368,6;0,00741349
164385,3;0,007426686
164401,8;0,007419355
164418,3;0,007419355
164434,8;0,007385631
164451,4;0,007378299
164467,9;0,007392962
164484,5;0,007395895
164501,1;0,007398827
164517,6;0,007373901
164534,2;0,007426686
164555,3;0,007417889
164567,3;0,00741349
164583,9;0,00743695
164600,5;0,007444282
164617;0,007439883
164633,9;0,007416422
164650,2;0,007416422
164667,3;0,007410557
164683,3;0,007407625
164699,9;0,007431085
164717;0,007444282
164733,3;0,007426686
164749,6;0,007438417
164766,6;0,007438417
164782,7;0,007438417
164800;0,007441349
164815,8;0,007441349
164832,7;0,007492669
164849;0,007482405
164865,6;0,007482405
164882,1;0,00747654
164898,7;0,007510264
164915,2;0,007501466
164931,8;0,007485338
164948,4;0,007485338
164964,9;0,007447214
164981,5;0,007473607
164998,1;0,00747654
165015,3;0,007457478
165031,2;0,00744868
165047,9;0,007451613
165065;0,007451613
165080,9;0,007429619
165097,5;0,007434017
165114,3;0,007453079
165130,6;0,007445748
165147,5;0,007445748
165163,9;0,007458944
165180,3;0,007469208
165196,9;0,007458944
165213,5;0,007458944
165230;0,007456012
165246,8;0,007507332
165263,1;0,007510264
165279,7;0,007491203
165296,3;0,007491203
165312,8;0,007508798
165329,8;0,007507332
165346;0,007498534
165362,5;0,00747654
165379,1;0,007478006
165395,7;0,00744868
165412,6;0,00744868
165429,1;0,007450147
165445,4;0,007417889
165461,9;0,00743695
165478,5;0,007426686
165495,1;0,007426686
165513;0,007406158
165528,2;0,007390029
165544,8;0,007382698
165561,3;0,007381232
165577,9;0,007356305
165594,5;0,007318182
165611,5;0,007299121
165628,2;0,007290323
165644,2;0,007280059
165660,7;0,007291789
165677,3;0,007303519
165693,9;0,007310851
165710,8;0,007290323
165727;0,00728739
165743,6;0,007304986
165760,2;0,007280059
165776,7;0,007290323
165793,3;0,007281525
165809,8;0,007321115
165826,4;0,00735044
165843,1;0,007343109
165859,5;0,007343109
165876,1;0,007343109
165892,7;0,007334311
165909,5;0,007347507
165925,8;0,00736217
165942,4;0,007390029
165958,9;0,007410557
165975,5;0,007406158
165992,1;0,007394428
166009;0,007395895
166025,5;0,007414956
166041,8;0,007414956
166058,7;0,007419355
166074,9;0,007422287
166091,5;0,007434017
166108;0,007407625
166125;0,007398827
166141,5;0,007397361
166157,7;0,007381232
166175;0,007379766
166191;0,007385631
166207,4;0,007382698
166224;0,007397361
166240,8;0,007382698
166257,1;0,007384164
166273,7;0,007388563
166290,3;0,007381232
166307,3;0,007381232
166323,4;0,007414956
166340;0,007429619
166356,7;0,007410557
166373,4;0,007407625
166389,7;0,007384164
166406,2;0,007378299
166422,8;0,007360704
166439,4;0,007379766
166455,9;0,007387097
166472,5;0,007392962
166805,8;0,00740176
166832,9;0,007417889
166849,5;0,007417889
166866;0,007406158
166882,6;0,00740176
166899,8;0,007388563
166915,7;0,007379766
166932,3;0,007390029
166948,9;0,007398827
166966;0,007419355
166982;0,007423754
166998,7;0,007423754
167015,3;0,007416422
167031,8;0,007416422
167050,2;0,007426686
167069;0,007414956
167087,4;0,007422287
167107,4;0,007412023
167129,5;0,007435484
167151,7;0,007435484
167173,7;0,007458944
167198,1;0,007463343
167221;0,007473607
167241,3;0,007482405
167263,4;0,007463343
167286,4;0,007456012
167309,5;0,00744868
167331,6;0,007441349
167353,5;0,007441349
167376,4;0,007420821
167398,6;0,00741349
167423;0,007387097
167446,2;0,007394428
167469,4;0,007378299
167486;0,007397361
167506,2;0,007404692
167525,5;0,007428152
167545,6;0,007423754
167564,5;0,007434017
167585,5;0,007407625
167604,9;0,007384164
167624,7;0,007351906
167645;0,007353372
167666,1;0,007351906
167686,1;0,007351906
167706,3;0,007351906
167726,2;0,007381232
167745,9;0,007354839
167770,2;0,007403226
167788,6;0,007390029
167806,3;0,007390029
167825,3;0,007404692
167844,7;0,007445748
167864,8;0,007458944
167887,5;0,00743695
167905,6;0,007435484
167923;0,00742522
167942,4;0,00743695
167962,8;0,007432552
167982;0,007432552
168002;0,007388563
168020,2;0,007390029
168038,5;0,007387097
168056,6;0,007385631
168074,9;0,007409091
168093,4;0,007441349
168112,2;0,007460411
168130,5;0,007467742
168150,1;0,007450147
168167,6;0,007439883
168186,2;0,007439883
168202,8;0,007432552
168222,6;0,007439883
168240,8;0,007426686
168257,5;0,007417889
168275,8;0,007432552
168294,8;0,007450147
168312,3;0,007450147
168331,3;0,007460411
168348;0,007495601
168367,3;0,007497068
168387,4;0,007501466
168403,9;0,007492669
168422,9;0,007458944
168439,7;0,007422287
168458,5;0,00741349
168475,4;0,007387097
168493,6;0,007368035
168510,8;0,007373901
168541,3;0,007403226
168557,9;0,007428152
168574,6;0,007451613
168591;0,007434017
168607,8;0,00744868
168624,3;0,00744868
168640,7;0,007422287
168658,7;0,007407625
168680,6;0,007387097
168703,2;0,007375367
168724,3;0,007382698
168748,7;0,007363637
168771,3;0,007354839
168788,6;0,007346041
168809,7;0,00733871
168829,4;0,007335777
168850,9;0,007340176
168869,1;0,007335777
168887,6;0,007344575
168907,5;0,007332845
168925,8;0,007340176
168948,2;0,007304986
168969,2;0,007331378
168985,8;0,007303519
169005;0,007277126
169022,9;0,007277126
169041;0,007274194
169058,7;0,00728739
169077,2;0,007260997
169096,3;0,007259531
169115,4;0,007302053
169135,1;0,00728739
169152,9;0,00726393
169172,4;0,007268329
169191,2;0,007244868
169210,7;0,007218475
169230,2;0,007233138
169251,4;0,007228739
169269,8;0,007243402
169290,5;0,007241935
169308,9;0,007256598
169327,5;0,00726393
169345,9;0,007256598
169366,3;0,007266862
169385,3;0,007265396
169404,1;0,00727566
169421;0,007278592
169440,9;0,007304986
169457,6;0,007300586
169486,3;0,007322581
169503;0,007278592
169519,5;0,007259531
169536,1;0,007237537
169552,6;0,007237537
169571,3;0,007250733
169588,5;0,007231672
169604,4;0,007231672
169621;0,007272727
169637,6;0,00728739
169654,4;0,007281525
169670,8;0,007277126
169687,3;0,007266862
169704,3;0,007258065
169720,4;0,007284458
169737;0,007278592
169753,5;0,007277126
169770,3;0,007271261
169786,7;0,007271261
169803,2;0,007262463
169819,8;0,007274194
169836,4;0,007243402
169852,9;0,007243402
169869,5;0,007206745
169886,1;0,007199414
169902,6;0,007190616
169919,2;0,007215543
169935,8;0,007227273
169952,3;0,00723607
169968,9;0,007222874
169985,9;0,0072478
170002;0,0072478
170018,6;0,00726393
170035,9;0,007256598
170051,9;0,00726393
170068,3;0,007272727
170084,9;0,007269795
170101,5;0,007294721
170118;0,007313783
170134,8;0,007296188
170151,1;0,007269795
170167,7;0,007265396
170184,3;0,007249267
170200,8;0,007241935
170217,6;0,007271261
170234;0,007271261
170250,5;0,007258065
170267,3;0,007227273
170283,7;0,007219941
170300,4;0,007205279
170316,8;0,00720088
170333,6;0,00720088
170349,9;0,007218475
170366,5;0,007209678
170392,8;0,007222874
170403,5;0,007208211
170420,1;0,007259531
170436,6;0,007259531
170453,2;0,007255132
170469,7;0,007271261
170486,5;0,007258065
170503,3;0,0072522
170519,4;0,007266862
170536;0,007209678
170552,7;0,007206745
170569,2;0,007205279
170586;0,00721261
170602,3;0,007222874
170618,8;0,00723607
170636,1;0,00723607
170652;0,00720088
170668,5;0,00720088
170685,3;0,007231672
170701,8;0,007233138
170718,3;0,007237537
170735,4;0,007228739
170751,4;0,007259531
170767,9;0,007258065
170784,5;0,007253666
170801,1;0,007239003
170817,7;0,007222874
170834,2;0,007225806
170850,9;0,007225806
170867,6;0,00721261
170883,9;0,007215543
170900,5;0,007215543
170917,3;0,007253666
170933,6;0,007260997
170950,7;0,007265396
170966,8;0,007260997
170983,3;0,007231672
170999,9;0,007240469
171016,8;0,00726393
171033,2;0,007271261
171049,6;0,00728739
171066,1;0,00726393
171082,7;0,00726393
171099,3;0,007265396
171115,8;0,007241935
171132,4;0,007244868
171149;0,007234604
171165,6;0,007234604
171183;0,007231672
171198,7;0,00722434
171215,5;0,007227273
171231,8;0,007227273
171248,4;0,00723607
171264,9;0,007209678
171281,5;0,007208211
171305,6;0,007197947
171314,6;0,007190616
171331,6;0,007183284
171347,9;0,007175953
171364,5;0,007177419
171381;0,007184751
171397,5;0,007178886
171414;0,007199414
171430,6;0,007203812
171447,2;0,007162757
171463,8;0,007162757
171480,7;0,00714956
171497,3;0,00714956
