83369,92;0,004076246
83386,51;0,004073314
83403,45;0,004080645
83419,78;0,004082112
83436,18;0,004095308
83452,96;0,004087977
83469,31;0,004090909
83485,88;0,004090909
83502,91;0,004080645
83519,02;0,004092375
83535,6;0,004087977
83552,22;0,004085044
83568,73;0,004092375
83585,29;0,004085044
83601,9;0,004090909
83619,04;0,004092375
83635,67;0,004092375
83651,55;0,00408651
83668,28;0,004089443
83684,7;0,004090909
83701,42;0,004090909
83717,83;0,004095308
83734,39;0,004090909
83751,4;0,004092375
83767,77;0,004099707
83784,09;0,004099707
83800,65;0,004092375
83817,22;0,004108504
83833,85;0,004090909
83850,35;0,004095308
83866,92;0,00409824
83883,48;0,00409824
83900,05;0,00408651
83916,62;0,004087977
83933,37;0,00408651
83949,78;0,004082112
83966,31;0,004095308
83982,88;0,004095308
83999,45;0,004099707
84016,33;0,004102639
84032,59;0,004096774
84049,15;0,004085044
84065,72;0,004092375
84082,66;0,004092375
84099,66;0,004082112
84115,77;0,004089443
84131,98;0,004089443
84148,55;0,004093842
84165,12;0,004095308
84182,22;0,004090909
84199,04;0,00408651
84214,81;0,00409824
84231,38;0,004096774
84248,1;0,004090909
84264,52;0,004090909
84281,09;0,004087977
84297,68;0,004080645
84314,22;0,004080645
84333,48;0,004082112
84347,35;0,004080645
84363,91;0,004071848
84380,48;0,004079179
84397,57;0,004080645
84414,31;0,004080645
84430,18;0,004073314
84446,75;0,004073314
84463,35;0,004093842
84479,88;0,004101173
84496,45;0,004092375
84513,02;0,00409824
84529,61;0,004099707
84546,82;0,004093842
84562,76;0,004093842
84579,48;0,004096774
84595,85;0,004079179
84613,12;0,004079179
84628,98;0,00407478
84645,55;0,004073314
84662,24;0,004077713
84678,84;0,004080645
84695,64;0,00407478
84711,81;0,004077713
84728,91;0,004070381
84745,43;0,004054252
84761,61;0,004054252
84778,32;0,004048387
84794,9;0,004048387
84811,98;0,004045455
84828,21;0,004042522
84844,59;0,004036657
84860,91;0,004024927
84877,5;0,004021994
84894,05;0,004019062
84910,62;0,004014663
84927,79;0,004020528
84943,77;0,004013197
84960,38;0,004008797
84977,02;0,004004399
84993,71;0,003998534
85010,1;0,004007332
85026,82;0,004017595
85043,8;0,004007332
85059,72;0,003994135
85076,29;0,003983871
85092,85;0,004
85109,88;0,004005865
85125,98;0,004002932
85142,55;0,004002932
85159,12;0,004004399
85175,68;0,004002932
85192,25;0,004019062
85208,93;0,004021994
85225,38;0,004017595
85241,95;0,004021994
85258,52;0,004020528
85275,09;0,004020528
85291,65;0,004023461
85308,22;0,004023461
85324,78;0,004014663
85341,34;0,004004399
85359,85;0,004002932
85374,48;0,004013197
85374,48;0,004008797
85394,48;0,004002932
85411,21;0,004001466
85427,9;0,004005865
85444,51;0,004
85460,76;0,003994135
85477,32;0,004002932
85494,2;0,003995601
85510,45;0,003997067
85527,1;0,003991202
85543,58;0,003991202
85560,61;0,003994135
85577,02;0,004
85593,27;0,004007332
85610,3;0,004007332
85626,41;0,004007332
85642,98;0,004010264
85659,56;0,00401173
85676,12;0,004026393
85692,68;0,004026393
85709,25;0,004014663
85726,59;0,004016129
85742,54;0,004023461
85758,95;0,004021994
85775,52;0,004010264
85792,09;0,004030792
85808,65;0,004032258
85825,21;0,004029326
85842,07;0,004023461
85858,34;0,004017595
85874,91;0,004024927
85891,48;0,004021994
85908,17;0,004042522
85925;0,004042522
85941,35;0,004043988
85958,52;0,004045455
85974,31;0,004046921
85990,91;0,004046921
86007,45;0,004049853
86024,09;0,004052786
86040,58;0,004082112
86057,14;0,004067449
86073,78;0,004064516
86090,44;0,004073314
86106,85;0,00406305
86123,43;0,004054252
86139,98;0,00405132
86156,66;0,004067449
86173,61;0,004065983
86189,68;0,004060118
86206,69;0,004064516
86222,82;0,004057185
86239,38;0,004057185
86256,24;0,004064516
86272,52;0,004060118
86289,91;0,004060118
86305,65;0,004076246
86322,23;0,004083578
86338,78;0,004085044
86355,46;0,004085044
86372,05;0,004082112
86388,53;0,004079179
86405,05;0,004087977
86421,84;0,004082112
86438,19;0,004082112
86454,78;0,004077713
86471,32;0,004083578
86488,16;0,004077713
86504,45;0,004085044
86521,07;0,004095308
86538,08;0,004095308
86554,84;0,00409824
86570,73;0,004108504
86587,64;0,004108504
86603,85;0,004108504
86620,45;0,004112903
86636,99;0,004104106
86653,65;0,004130499
86670,21;0,004127566
86686,84;0,0041261
86703,27;0,004129032
86719,82;0,004129032
86737,17;0,004130499
86752,95;0,00413783
86769,52;0,004143695
86786,16;0,004159824
86802,65;0,004159824
86819,21;0,004156892
86835,78;0,004153959
86852,73;0,004152493
86868,92;0,004167155
86885,48;0,004167155
86902,05;0,004167155
86919,02;0,004162757
86935,18;0,004162757
86952,04;0,004162757
86968,31;0,004174487
86985,52;0,004177419
87002,05;0,00416129
87018,02;0,004162757
87034,59;0,004162757
87051,35;0,004167155
87067,93;0,004187683
87084,28;0,004183284
87101,11;0,004177419
87117,41;0,004177419
87134,18;0,004175953
87150,93;0,004164223
87167,12;0,004165689
87183,68;0,004165689
87200,71;0,004168622
87216,98;0,00417302
87233,38;0,00417302
87250;0,004183284
87266,51;0,004183284
87283,08;0,004180352
87299,64;0,004170088
87316,22;0,004193549
87332,84;0,004189149
87349,35;0,004189149
87365,94;0,004193549
87382,48;0,004193549
87399,05;0,004193549
87415,64;0,004181818
87432,18;0,00417302
87448,74;0,004197947
87465,32;0,004199414
87481,88;0,004189149
87499,05;0,004199414
87515,02;0,004195014
87531,58;0,00420088
87548,3;0,004205279
87564,71;0,004196481
87581,28;0,004202346
87598,16;0,004197947
87614,82;0,004202346
87630,98;0,004202346
87647,55;0,004192082
87664,3;0,004190616
87680,68;0,004181818
87697,35;0,004192082
87714,16;0,004199414
87730,59;0,004196481
87747,11;0,00420088
87763,85;0,004192082
87780,09;0,004187683
87796,65;0,004178886
87813,23;0,004178886
87829,78;0,004187683
87846,34;0,004199414
87862,91;0,004209678
87879,48;0,004208211
87896,5;0,004203812
87912,74;0,004196481
87929,24;0,004195014
87945,75;0,004189149
87962,34;0,004175953
87978,88;0,004184751
87995,45;0,004189149
88012,02;0,004180352
88028,6;0,004168622
88045,15;0,004164223
88061,71;0,004171554
88078,73;0,00417302
88094,98;0,004170088
88111,41;0,004181818
88128,34;0,004175953
88144,55;0,004164223
88161,12;0,004168622
88177,68;0,004168622
88194,25;0,004175953
88210,81;0,00417302
88227,61;0,004181818
88244,15;0,004187683
88260,59;0,004190616
88277,09;0,00420088
88293,65;0,004184751
88310,88;0,004189149
88326,81;0,004189149
88343,47;0,004189149
88359,91;0,004193549
88377,15;0,00420088
88393,73;0,004183284
88411,13;0,004181818
88426,66;0,004190616
88442,82;0,004186217
88459,34;0,004203812
88475,88;0,004199414
88492,45;0,004197947
88509,18;0,004193549
88525,58;0,004195014
88542,21;0,004195014
88558,72;0,004196481
88575,49;0,004187683
88591,85;0,004174487
88608,41;0,004180352
88625,01;0,004186217
88641,56;0,004186217
88658,28;0,004193549
88674,68;0,004192082
88691,24;0,004192082
88707,82;0,004192082
88724,38;0,004195014
88741,01;0,004171554
88757,52;0,004171554
88774,08;0,004152493
88790,69;0,004162757
88807,21;0,004164223
88823,78;0,004159824
88840,34;0,00416129
88856,91;0,004164223
88873,48;0,004164223
88890,05;0,004158358
88906,62;0,00416129
88923,18;0,004155425
88939,75;0,00416129
88956,47;0,00416129
88972,88;0,004152493
88989,45;0,004162757
89006,02;0,004178886
89022,59;0,004183284
89039,15;0,004180352
89055,72;0,00417302
89072,28;0,004175953
89089,01;0,004170088
89105,68;0,004175953
89122,01;0,004170088
89138,55;0,004170088
89155,13;0,004170088
89171,69;0,004164223
89188,28;0,004164223
89205,45;0,004153959
89221,84;0,004165689
89238,17;0,004168622
89255,16;0,004168622
89271,09;0,004164223
89287,66;0,004167155
89304,93;0,004155425
89321,06;0,004146628
89337,73;0,00414956
89353,93;0,004148094
89371,03;0,004145161
89387,37;0,004167155
89403,61;0,00416129
89420,23;0,004168622
89436,85;0,004167155
89453,8;0,004162757
89470,4;0,004162757
89486,95;0,00416129
89503,51;0,004170088
89520,19;0,004168622
89537,01;0,004168622
89554,14;0,00416129
89569,78;0,004165689
89586,34;0,004165689
89603,01;0,004159824
89619,88;0,004164223
89636,04;0,004168622
89652,61;0,004168622
89669,39;0,004175953
89685,74;0,004190616
89702,31;0,004180352
89719,13;0,004180352
89735,45;0,004178886
89752,02;0,004178886
89768,58;0,004190616
89785,14;0,004190616
89801,71;0,004186217
89818,67;0,004186217
89835,16;0,004177419
89851,55;0,004170088
89867,98;0,004175953
89884,55;0,004178886
89901,78;0,004178886
89917,68;0,004178886
89934,24;0,004177419
89950,95;0,004184751
89967,59;0,004184751
89984,59;0,004177419
90000,51;0,004175953
90017,08;0,004174487
90034,06;0,004167155
90050,98;0,004164223
90066,78;0,004164223
90083,34;0,00416129
90099,91;0,004164223
90116,85;0,004158358
90133,04;0,004164223
90149,61;0,004167155
90166,3;0,004162757
90182,74;0,004153959
90199,31;0,00416129
90215,88;0,00414956
90232,68;0,004146628
90249,01;0,004155425
90265,58;0,004148094
90282,14;0,004146628
90298,71;0,004139296
90315,27;0,004140763
90332,54;0,004136364
90348,45;0,004130499
90364,98;0,0041261
90381,55;0,004123167
90398,11;0,004123167
90414,93;0,0041261
90431,26;0,0041261
90447,8;0,004118768
90464,38;0,004118768
90481,34;0,004109971
90500,92;0,004124634
90514,08;0,004129032
90530,64;0,004136364
90547,21;0,004145161
90563,93;0,004142229
90580,45;0,004146628
90596,91;0,00414956
90613,47;0,004146628
90630,05;0,00414956
90646,87;0,004153959
90663,8;0,004153959
90679,74;0,004151026
90696,55;0,004153959
90712,88;0,004174487
90730,23;0,004181818
90746,82;0,004180352
90762,66;0,004181818
90779,16;0,004183284
90795,71;0,004186217
90812,28;0,004180352
90828,84;0,004180352
90845,59;0,004189149
90861,98;0,004178886
90878,54;0,004170088
90895,55;0,004180352
90911,77;0,004181818
90928,75;0,004175953
90944,81;0,004171554
90961,38;0,004164223
90977,95;0,004164223
90994,51;0,00416129
91011,08;0,004158358
91027,64;0,00414956
91044,29;0,004165689
91060,77;0,004168622
91077,34;0,00417302
91093,91;0,00417302
91110,48;0,004164223
91127,41;0,004174487
91144,72;0,004174487
91160,28;0,004195014
91176,74;0,00420088
91193,3;0,004203812
91209,88;0,004193549
91226,55;0,004195014
91243,01;0,004197947
91259,89;0,00421261
91276,15;0,004208211
91293,09;0,004219941
91309,28;0,004219941
91325,84;0,004219941
91342,41;0,004219941
91358,98;0,004217009
91375,54;0,00422434
91392,11;0,004221408
91408,68;0,004227273
91425,24;0,004244868
91441,82;0,004246335
91458,38;0,0042522
91474,95;0,004250733
91491,62;0,0042522
91508,25;0,004240469
91524,64;0,004240469
91541,31;0,004243402
91557,78;0,004246335
91574,34;0,004237537
91590,91;0,00423607
91607,48;0,004225806
91624,37;0,004222874
91640,65;0,004217009
91657,17;0,00420088
91673,74;0,004197947
91690,45;0,004184751
91707,05;0,004183284
91723,45;0,004183284
91740,06;0,004183284
91756,58;0,004181818
91773,77;0,004175953
91789,71;0,004167155
91806,27;0,004167155
91822,84;0,004171554
91840,15;0,004174487
91855,98;0,004196481
91872,58;0,004184751
91889,13;0,004177419
91905,77;0,004181818
91922,65;0,004195014
91939;0,004193549
91955,39;0,004193549
91972,73;0,004195014
91988,52;0,004195014
92005,09;0,004196481
92021,87;0,004190616
92038,23;0,00420088
92054,82;0,004215543
92071,91;0,004225806
92088,21;0,00422434
92104,76;0,004231672
92121,04;0,004230205
92137,61;0,004228739
92154,99;0,004231672
92170,74;0,004237537
92187,31;0,004237537
92203,88;0,004227273
92220,54;0,004241935
92237,04;0,004233138
92253,58;0,004237537
92270,14;0,004227273
92286,71;0,004246335
92303,27;0,0042478
92319,87;0,004243402
92336,41;0,004237537
92353,82;0,00423607
92369,55;0,00423607
92386,52;0,004227273
92402,89;0,004250733
92419,53;0,004250733
92435,8;0,004268329
92452,38;0,004268329
92468,94;0,00426393
92485,52;0,004255132
92502,08;0,004253666
92518,69;0,004241935
92535,54;0,004240469
92551,77;0,004240469
92568,34;0,004237537
92584,91;0,004246335
92601,48;0,004249267
92622,08;0,004244868
92634,6;0,004249267
92651,18;0,004249267
92667,75;0,0042522
92684,47;0,004243402
92701,02;0,004243402
92717,45;0,004239003
92734,55;0,004246335
92750,59;0,004246335
92767,2;0,0042522
92783,8;0,004241935
92800,28;0,004227273
92816,84;0,004239003
92833,45;0,004237537
92850,41;0,004228739
92866,73;0,004239003
92883,5;0,004239003
92899,67;0,004239003
92916,24;0,004237537
92932,8;0,004227273
92949,62;0,004239003
92966,27;0,004237537
92982,52;0,004237537
92999,08;0,004237537
93015,64;0,00423607
93032,21;0,004239003
93048,9;0,004255132
93065,34;0,004253666
93081,91;0,004243402
93098,48;0,004250733
93115,05;0,004269795
93131,94;0,004260997
93148,18;0,004256598
93164,74;0,004256598
93181,31;0,004256598
93198,13;0,004249267
93214,45;0,004237537
93231,07;0,004258065
93247,92;0,004241935
93264,54;0,004241935
93281,2;0,004221408
93297,28;0,004217009
93313,84;0,004221408
93330,78;0,004218475
93346,98;0,004218475
93363,54;0,004218475
93380,11;0,004206745
93396,67;0,004202346
93413,25;0,004193549
93429,81;0,004181818
93447,05;0,004178886
93463,93;0,004177419
93479,53;0,004175953
93496,38;0,004178886
93512,64;0,004178886
93529,21;0,004171554
93545,77;0,004183284
93562,34;0,004192082
93578,91;0,004195014
93595,48;0,004187683
93612,27;0,004186217
93628,61;0,004199414
93645,62;0,004193549
93662,11;0,004193549
93678,59;0,004193549
93694,88;0,004221408
93713,26;0,004239003
93728,16;0,004260997
93744,58;0,004258065
93761,15;0,004258065
93778,41;0,004258065
93794,27;0,004239003
93811,34;0,004239003
93827,79;0,0042478
93844,7;0,004231672
93860,54;0,004231672
93877,26;0,004231672
93893,68;0,00422434
93910,29;0,004218475
93926,81;0,004211144
93943,38;0,004215543
93959,95;0,004214076
93976,51;0,004209678
93993,09;0,004221408
94009,64;0,004230205
94026,2;0,004219941
94042,78;0,004215543
94059,34;0,004215543
94075,91;0,004211144
94092,48;0,004211144
94109,13;0,004199414
94125,62;0,004202346
94142,69;0,004193549
94158,74;0,004186217
94175,57;0,004190616
94192,07;0,004190616
94208,57;0,004196481
94225,03;0,004193549
94241,63;0,004196481
94258,16;0,004203812
94274,73;0,004203812
94291,27;0,004197947
94307,84;0,004192082
94324,41;0,004190616
94341,1;0,004190616
94357,75;0,004189149
94374,38;0,004192082
94390,7;0,004186217
94407,24;0,004186217
94423,81;0,004174487
94440,38;0,004165689
94456,94;0,004165689
94473,52;0,004165689
94490,08;0,004171554
94507,06;0,004174487
94523,24;0,00416129
94539,8;0,004171554
94556,35;0,004181818
94573,29;0,004177419
94589,48;0,004167155
94606,05;0,004168622
94622,62;0,00417302
94639,19;0,004142229
94655,77;0,004151026
94673,16;0,004143695
94689,01;0,00413783
94705,54;0,004131965
94722,4;0,004134898
94738,88;0,004133431
94755,57;0,004118768
94779,85;0,004117302
94788,27;0,0041261
94805,03;0,004129032
94822,1;0,004123167
94837,98;0,004124634
94854,56;0,004130499
94871,2;0,004129032
94887,68;0,00413783
94904,35;0,00413783
94921,13;0,004146628
94937,38;0,004140763
94954,22;0,004148094
94970,52;0,00414956
94987,21;0,004151026
95003,9;0,004151026
95020,21;0,004148094
95036,77;0,004136364
95053,37;0,004121701
95069,91;0,004112903
95086,48;0,004111437
95103,13;0,00409824
95119,61;0,004093842
95136,34;0,004095308
95153,52;0,004085044
95169,31;0,004085044
95186,84;0,004095308
95202,45;0,004093842
95219,01;0,004093842
95235,57;0,004068915
95252,14;0,00407478
95268,71;0,004077713
95285,52;0,004067449
95302,37;0,004071848
95318,41;0,004071848
95335,16;0,004079179
95351,54;0,004080645
95368,11;0,004083578
95384,77;0,004077713
95401,25;0,004073314
95418,26;0,004077713
95434,73;0,004071848
95451,17;0,004079179
95467,51;0,004071848
95484,08;0,004073314
95501,48;0,004077713
95517,21;0,004076246
95533,77;0,004079179
95550,34;0,004073314
95566,91;0,004083578
95583,48;0,004083578
95600,47;0,004083578
95616,63;0,004092375
95633,18;0,004083578
95649,74;0,004068915
95667,05;0,004067449
95682,88;0,00407478
95699,49;0,004065983
95716,02;0,004057185
95732,59;0,004055718
95749,68;0,00405132
95765,71;0,004045455
95782,28;0,004055718
95798,84;0,004076246
95815,41;0,004067449
95831,98;0,004060118
95848,56;0,00406305
95865,32;0,004071848
95881,72;0,004080645
95898,25;0,00407478
95914,81;0,004068915
95931,82;0,004077713
95947,98;0,004071848
95965,03;0,004071848
95981,08;0,004080645
95997,64;0,004070381
96014,8;0,004070381
96030,77;0,004071848
96047,35;0,004073314
96063,94;0,004080645
96080,48;0,004080645
96097,05;0,004092375
96113,61;0,004109971
96130,17;0,004109971
96146,74;0,004096774
96163,95;0,004117302
96179,88;0,004114369
96196,83;0,004114369
96213,02;0,004120235
96229,58;0,004120235
96246,15;0,004108504
96262,71;0,004109971
96279,3;0,004101173
96295,84;0,004090909
96312,41;0,004085044
96329,27;0,004087977
96345,64;0,004087977
96362,13;0,004077713
96378,68;0,004079179
96395,24;0,004064516
96411,81;0,004071848
96428,96;0,004064516
96444,94;0,00407478
96461,51;0,004082112
96478,22;0,004092375
96494,65;0,004095308
96511,21;0,004099707
96528,67;0,004099707
96544,34;0,004099707
96561,45;0,004099707
96577,6;0,004099707
96594,04;0,004087977
96610,61;0,00408651
96627,7;0,004099707
96643,74;0,004107038
96660,31;0,004108504
96676,88;0,004120235
96693,45;0,004105572
96710,01;0,004111437
96726,58;0,004109971
96743,14;0,004108504
96759,77;0,004105572
96776,38;0,004111437
96792,84;0,004111437
96809,41;0,004112903
96825,98;0,004127566
96842,55;0,004127566
96859,11;0,004124634
96875,68;0,004124634
96892,68;0,004121701
96908,8;0,004131965
96925,38;0,004134898
96942,41;0,004140763
96958,51;0,004133431
96975,08;0,004133431
96991,65;0,004120235
97008,45;0,004127566
97024,78;0,0041261
97041,34;0,004130499
97058,09;0,004118768
97075,02;0,004124634
97091,32;0,004134898
97108,46;0,004134898
97124,58;0,004127566
97141,13;0,004151026
97157,54;0,004148094
97173,88;0,00414956
97190,56;0,00414956
97207,02;0,004155425
97223,59;0,00414956
97241,07;0,004156892
97257,44;0,004165689
97273,89;0,004171554
97289,85;0,004162757
97306,42;0,004162757
97323,08;0,00416129
97339,59;0,004151026
97356,12;0,00414956
97372,69;0,00416129
97389,27;0,004165689
97406,17;0,004162757
97422,4;0,004168622
97439,02;0,004180352
97455,52;0,00417302
97472,09;0,00417302
97488,64;0,00417302
97505,95;0,00417302
97521,84;0,004177419
97538,34;0,004180352
97554,91;0,004186217
97571,81;0,004184751
97588,05;0,004186217
97604,61;0,004183284
97621,99;0,004181818
97637,74;0,004174487
97654,48;0,004170088
97670,88;0,004164223
97687,58;0,004152493
97704,01;0,004143695
97720,58;0,004143695
97737,31;0,004148094
97753,71;0,004151026
97770,28;0,004152493
97786,85;0,004146628
97803,41;0,004146628
97819,99;0,004142229
97836,54;0,00413783
97853,11;0,004127566
97870,48;0,004124634
97886,24;0,004129032
97903,2;0,004129032
97919,94;0,004140763
97936,87;0,004143695
97952,51;0,004143695
97969,19;0,004143695
97985,65;0,0041261
98002,21;0,0041261
98018,77;0,004114369
98035,34;0,004114369
98051,91;0,00409824
98069,36;0,00409824
98085,05;0,004082112
98101,82;0,004073314
98118,18;0,004073314
98135,16;0,004076246
98151,79;0,004082112
98167,88;0,004085044
98184,44;0,004070381
98201,01;0,004070381
98217,58;0,004077713
98234,15;0,00407478
98250,71;0,004090909
98267,27;0,004089443
98284,48;0,00408651
98300,41;0,004108504
98317,37;0,004111437
98334,09;0,004121701
98350,13;0,004121701
98366,68;0,0041261
98383,24;0,004118768
98400,58;0,004121701
98416,38;0,004127566
98432,98;0,004121701
98449,87;0,004109971
98466,3;0,004117302
98482,64;0,004117302
98499,65;0,004121701
98515,78;0,004114369
98532,34;0,004111437
98548,93;0,004109971
98565,77;0,004109971
98582,06;0,004121701
98598,61;0,004121701
98615,36;0,004124634
98631,81;0,004107038
98648,46;0,004115836
98664,88;0,004109971
98681,45;0,004109971
98698,27;0,004114369
98715,18;0,004114369
98731,59;0,004114369
98747,71;0,004104106
98764,27;0,004104106
98780,89;0,004117302
98797,41;0,004114369
98814,59;0,004133431
98831,22;0,004129032
98847,13;0,004124634
98863,68;0,004117302
98880,3;0,004142229
98896,81;0,004118768
98913,85;0,004118768
98929,95;0,004118768
98946,51;0,004136364
98963,07;0,004130499
98985,18;0,0041261
98996,95;0,004115836
99012,78;0,004111437
99029,34;0,004133431
99045,91;0,004140763
99062,64;0,004140763
99079,04;0,004140763
99095,61;0,004145161
99112,17;0,004146628
99128,74;0,004152493
99145,31;0,004140763
99161,88;0,004133431
99178,45;0,004130499
99195,02;0,0041261
99211,58;0,004123167
99228,46;0,004148094
99244,71;0,004155425
99261,27;0,004151026
99277,84;0,004151026
99294,44;0,00414956
99310,98;0,004156892
99327,55;0,004148094
99344,11;0,004148094
99360,68;0,004152493
99377,24;0,004152493
99393,8;0,004152493
99410,38;0,004152493
99426,94;0,004152493
99443,79;0,00416129
99460,77;0,004155425
99476,65;0,004155425
99493,21;0,00413783
99509,77;0,004153959
99526,34;0,004152493
99542,92;0,004139296
99559,63;0,004134898
99576,18;0,004134898
99592,7;0,004143695
99609,18;0,004136364
99625,74;0,004139296
99642,37;0,004139296
99659,34;0,004146628
99675,45;0,004162757
99692,01;0,004164223
99708,61;0,004164223
99725,14;0,004167155
99741,71;0,004180352
99758,34;0,004184751
99774,85;0,004184751
99791,63;0,004184751
99808,01;0,004190616
99824,55;0,004190616
99841,84;0,004192082
99858,02;0,004190616
99874,61;0,004192082
99890,81;0,004189149
99907,5;0,004183284
99923,96;0,004178886
99940,55;0,004195014
99957,23;0,004190616
99975,17;0,004193549
99991,66;0,004211144
100008,1;0,004215543
100024,6;0,004215543
100041,8;0,004211144
100057,8;0,004211144
100074,3;0,004211144
100091;0,00423607
100107,5;0,004233138
100124;0,004230205
100140,6;0,004221408
100157,3;0,00422434
100173,7;0,00422434
100190,3;0,004237537
100206,9;0,004243402
100223,6;0,004241935
100240;0,0042478
100256,6;0,00423607
100273,1;0,00423607
100289,7;0,004241935
100306,3;0,004227273
100322,8;0,00422434
100339,7;0,004243402
100356;0,004244868
100372,7;0,004255132
100389,1;0,004256598
100405,7;0,004260997
100422,4;0,004269795
100438,9;0,004272727
100455,4;0,004269795
100472,3;0,00426393
100488,5;0,004262463
100505,4;0,00426393
100521,6;0,004258065
100538,2;0,004260997
100554,8;0,004274194
100571,6;0,004256598
100587,9;0,004246335
100604,5;0,004256598
100621;0,0042478
100637,6;0,0042478
100654,2;0,004243402
100670,7;0,004243402
100687,3;0,004243402
100704,4;0,004239003
100720,4;0,00423607
100737,2;0,004231672
100753,7;0,0042522
100770,1;0,004243402
100786,7;0,004241935
100803,3;0,0042478
100819,8;0,0042478
100836,4;0,00423607
100853;0,004230205
100870;0,004231672
100886,3;0,004241935
100902,7;0,004241935
100919,2;0,004231672
100935,9;0,004249267
100952,6;0,0042522
100968,9;0,004256598
100985,5;0,004243402
101003,5;0,0042478
101018,7;0,004243402
101035,2;0,004240469
101051,8;0,004240469
101068,3;0,004246335
101084,9;0,004241935
101101,8;0,004228739
101118,3;0,004222874
101134,7;0,00422434
101151,3;0,004228739
101167,7;0,004239003
101184,3;0,004237537
101200,9;0,004243402
101217,4;0,004237537
101234;0,004240469
101251;0,004240469
101267,1;0,004240469
101283,7;0,004241935
101300,4;0,004241935
101316,8;0,004241935
101333,4;0,00423607
101350;0,00423607
101366,5;0,004243402
101383,1;0,004246335
101399,7;0,00423607
101416,2;0,004243402
101432,8;0,004237537
101450;0,004253666
101465,9;0,004260997
101483;0,004259531
101499,2;0,004259531
101515,6;0,004246335
101532,5;0,004250733
101548,8;0,004250733
101565,3;0,0042478
101581,9;0,004262463
101598,5;0,004269795
101615,8;0,004259531
101631,9;0,004262463
101648,5;0,004260997
101664,8;0,00427566
101681,3;0,004272727
101697,9;0,004272727
101714,4;0,004274194
101731;0,004253666
101747,6;0,004250733
101764,3;0,004250733
101781,1;0,004250733
101798,2;0,004244868
101814,4;0,004262463
101830,4;0,004259531
101847,5;0,004255132
101863,5;0,004260997
101880,4;0,004259531
101896,7;0,004250733
101913,2;0,00426393
101929,8;0,00426393
101946,4;0,004265396
101962,9;0,004268329
101979,5;0,004268329
101996,4;0,004268329
102012,6;0,004268329
102029,2;0,004269795
102045,8;0,004265396
102062,3;0,004277126
102078,9;0,004274194
102095,5;0,004274194
102115,5;0,00426393
102128,6;0,004259531
102145,2;0,004281525
102162;0,004278592
102178,3;0,004285924
102195,2;0,004291789
102211,4;0,00426393
102228,3;0,004256598
102244,6;0,004262463
102261,3;0,00426393
102277,7;0,004266862
102294,3;0,004258065
102311,6;0,004260997
102327,4;0,004256598
102344,9;0,004256598
102360,5;0,004244868
102377,4;0,004239003
102394,3;0,004244868
102410,3;0,004233138
102427,1;0,004234604
102443,9;0,004259531
102460;0,004260997
102476,5;0,0042522
102493,1;0,0042522
102509,7;0,004250733
102526,2;0,004255132
102542,8;0,004250733
102559,8;0,004258065
102576,6;0,004253666
102592,5;0,004262463
102609,3;0,004272727
102625,6;0,004272727
102643,2;0,004272727
102658,8;0,004281525
102675,6;0,004281525
102692,3;0,004281525
102708,4;0,004293255
102725;0,00428739
102741,6;0,004285924
102758,1;0,004284457
102774,7;0,004278592
102791,4;0,004278592
102808,7;0,004280059
102824,4;0,004265396
102841,6;0,004265396
102857,5;0,004258065
102874,2;0,004256598
102890,7;0,004256598
102907,3;0,0042478
102923,8;0,004249267
102940,4;0,004249267
102956,9;0,004244868
102973,5;0,004249267
102990,1;0,004249267
103006,7;0,004258065
103023,2;0,004241935
103039,8;0,004258065
103056,7;0,0042522
103072,9;0,004256598
103089,5;0,00426393
103113,7;0,004274194
103122,6;0,004269795
103139,2;0,004260997
103156;0,004269795
103172,3;0,004255132
103188,9;0,004266862
103205,5;0,004260997
103222;0,004260997
103238,6;0,004260997
103255,1;0,004255132
103271,9;0,004255132
103288,5;0,004240469
103305;0,004240469
103321,4;0,0042522
103338;0,004230205
103354,5;0,004237537
103371,1;0,004237537
103388,1;0,004219941
103404,2;0,004231672
103420,8;0,004237537
103437,8;0,004240469
103454,2;0,004259531
103471;0,004221408
103487,1;0,004227273
103503,6;0,004225806
103520,2;0,004231672
103536,9;0,004228739
103553,6;0,004237537
103569,9;0,0042478
103586,5;0,004246335
103603;0,004253666
103620,4;0,004259531
103637;0,0042522
103652,7;0,0042478
103669,3;0,004250733
103685,9;0,004244868
103702,4;0,004249267
103719,4;0,004249267
103735,9;0,004249267
103752,1;0,004259531
103769,1;0,004265396
103785,3;0,004268329
103801,8;0,00426393
103818,4;0,004265396
103835,8;0,004282991
103851,6;0,004278592
103868,1;0,004278592
103884,7;0,004277126
103901,2;0,004277126
103917,8;0,004272727
103935;0,004280059
103950,9;0,004285924
103967,5;0,004269795
103984,1;0,0042522
104000,6;0,004250733
104017,2;0,004250733
104033,8;0,004260997
104050,3;0,004262463
104066,9;0,004250733
104083,8;0,004243402
104100;0,004244868
104116,6;0,004244868
104133,6;0,004250733
104149,8;0,004244868
104166,3;0,004262463
104182,9;0,004277126
104199,5;0,004266862
104216;0,004262463
104232,6;0,004250733
104249,1;0,004258065
104265,7;0,004259531
104282,3;0,004268329
104298,8;0,004266862
104315,4;0,004274194
104332;0,004274194
104348,5;0,004265396
104365,1;0,004281525
104381,7;0,004288856
104398,3;0,004290323
104414,8;0,004278592
104431,4;0,004285924
104447,9;0,004293255
104464,5;0,00428739
104481,4;0,004291789
104497,6;0,004300586
104514,5;0,004300586
104530,8;0,004300586
104547,3;0,004309384
104563,9;0,004316716
104580,5;0,004300586
104597,3;0,004293255
104613,6;0,004294721
104630,6;0,00428739
104646,7;0,004291789
104663,3;0,004293255
104679,9;0,004293255
104696,4;0,004306452
104713;0,004293255
104729,6;0,004309384
104746,1;0,004309384
104763,1;0,004310851
104779,3;0,004310851
104795,9;0,00429912
104812,7;0,004309384
104829;0,004302053
104846;0,004307918
104862,3;0,004307918
104878,7;0,004307918
104895,2;0,004332845
104911,9;0,004337243
104928,5;0,004341642
104945,2;0,00432698
104961,5;0,00432698
104978,1;0,004334311
104994,6;0,004329912
105011,7;0,004344575
105027,8;0,004332845
105044,3;0,004334311
105060,9;0,004329912
105077,5;0,004329912
105094,8;0,004329912
105110,6;0,004332845
105127,9;0,004331378
105144;0,004334311
105160,3;0,004328446
105176,9;0,004324047
105193,4;0,004324047
105210,3;0,004319648
105226,6;0,004312317
105243,1;0,004313783
105259,7;0,004319648
105276,6;0,004322581
105294,8;0,004322581
105309,4;0,004324047
105326;0,004340176
105342,5;0,004337243
105359,1;0,004341642
105376;0,004335777
105392,2;0,004347507
105409,3;0,00435044
105425,5;0,004332845
105441,9;0,00433871
105458,8;0,00433871
105475,1;0,004346041
105491,9;0,004343109
105508,2;0,004343109
105525,2;0,004335777
105541,3;0,004319648
105558,4;0,004310851
105574,8;0,004315249
105591;0,004313783
105607,6;0,004318182
105624,2;0,004304986
105640,8;0,004304986
105657,4;0,004304986
105673,9;0,004304986
105690,8;0,00428739
105707;0,004300586
105723,8;0,004293255
105740,1;0,004296188
105756,7;0,004285924
105773,3;0,004290323
105789,8;0,00427566
105806,4;0,00427566
105823;0,00427566
105839,5;0,004268329
105856,1;0,004274194
105873,2;0,004284457
105889,2;0,004271261
105906;0,004272727
105922,5;0,004258065
105938,9;0,004271261
105955,5;0,004271261
105972,2;0,004280059
105988,8;0,004291789
106005,2;0,004281525
106021,8;0,004278592
106038,3;0,004278592
106055;0,004293255
106071,6;0,004280059
106088;0,004281525
106104,6;0,004277126
106121,2;0,004271261
106138,1;0,004262463
106154,3;0,004255132
106170,9;0,004255132
106187,5;0,004269795
106204,9;0,004266862
106220,6;0,004269795
106237,1;0,004268329
106254,1;0,004258065
106274,1;0,004256598
106286,8;0,00426393
106303,4;0,004249267
106320;0,004244868
106336,7;0,004237537
106353,1;0,004227273
106369,7;0,004227273
106386,3;0,004222874
106402,9;0,004227273
106419,4;0,004225806
106436,2;0,004225806
106452,5;0,004208211
106469,4;0,004208211
106485,6;0,00421261
106502,2;0,004203812
106518,8;0,00420088
106535,3;0,004199414
106551,9;0,004202346
106568,5;0,004205279
106585;0,004187683
106601,6;0,004199414
106618,2;0,004195014
106635,2;0,004199414
106651,3;0,004202346
106667,9;0,004203812
106684,4;0,00420088
106701,1;0,004199414
106717,7;0,004181818
106734,1;0,004174487
106750,7;0,004184751
106767,3;0,004184751
106783,8;0,004184751
106800,4;0,004167155
106817;0,004187683
106833,5;0,004187683
106850,1;0,004168622
106867;0,004171554
106883,2;0,004168622
106900,1;0,004170088
106916,4;0,00416129
106932,9;0,004153959
106949,5;0,004158358
106966,1;0,004148094
106982,6;0,00414956
106999,2;0,004143695
107015,8;0,004143695
107032,3;0,004145161
107049,3;0,004139296
107065,5;0,004142229
107082;0,004142229
107098,6;0,004142229
107115,2;0,004139296
107131,7;0,004143695
107148,7;0,004148094
107164,9;0,004151026
107181,4;0,00413783
107198;0,004134898
107214,6;0,0041261
107231,5;0,004131965
107248,1;0,004121701
107264,3;0,004118768
107280,8;0,004120235
107299,1;0,004120235
107314,1;0,004123167
107330,5;0,004120235
107347,7;0,004136364
107363,8;0,004118768
107380,7;0,004112903
107396,8;0,004117302
107413,4;0,004108504
107430,1;0,004090909
107446,5;0,004090909
107463,2;0,004087977
107479,6;0,004085044
107496,2;0,004095308
107512,8;0,004089443
107529,5;0,004105572
107545,9;0,004108504
107562,5;0,004112903
107579;0,004104106
107595,6;0,004099707
107612,4;0,004085044
107628,9;0,004101173
107645,3;0,004105572
107661,9;0,004101173
107678,4;0,004101173
107695,4;0,004101173
107712,2;0,004101173
107728,1;0,004105572
107744,9;0,004105572
107761,3;0,004105572
107777,8;0,004105572
107794,5;0,004099707
107811;0,004099707
107827,5;0,004101173
107844,1;0,004123167
107860,7;0,004102639
107877,2;0,004104106
107894,3;0,004087977
107910,4;0,004093842
107927,1;0,004085044
107943,7;0,00409824
107960,6;0,004090909
107976,6;0,004090909
107993,2;0,004082112
108009,8;0,004077713
108026,9;0,004076246
108042,9;0,004079179
108059,5;0,004077713
108076,9;0,004082112
108092,6;0,004080645
108109,2;0,004079179
108125,7;0,004090909
108142,8;0,004090909
108159,1;0,004087977
108175,4;0,004068915
108192,9;0,004073314
108208,6;0,004085044
108225,1;0,00409824
108241,7;0,004107038
108258,4;0,004104106
108275,1;0,004093842
108291,4;0,004090909
108308,5;0,004104106
108324,6;0,004104106
108347,3;0,004108504
108357,7;0,004108504
108374,4;0,004108504
108391;0,004102639
108407,4;0,004108504
108423,9;0,004109971
108440,7;0,004101173
108457,1;0,00409824
108473,6;0,004102639
108490,2;0,004104106
108507,6;0,004104106
108523,3;0,004095308
108540;0,004090909
108556,5;0,004096774
108573;0,004095308
108589,6;0,00408651
108606,2;0,004096774
108622,8;0,004096774
108639,3;0,004109971
108655,9;0,004090909
108672,4;0,004089443
108689,4;0,004089443
108705,6;0,00408651
108722,1;0,004096774
108738,7;0,004095308
108755,3;0,004085044
108771,8;0,004089443
108788,5;0,004108504
108805;0,004085044
108821,7;0,004083578
108838,1;0,004095308
108855,5;0,004099707
108871,2;0,004099707
108888,4;0,004099707
108904,4;0,004108504
108920,9;0,004105572
108937,5;0,004105572
108954,1;0,004124634
108970,8;0,004123167
108987,2;0,004123167
109003,8;0,004118768
109020,3;0,0041261
109036,9;0,004130499
109053,5;0,004129032
109070;0,004121701
109086,9;0,004120235
109103,2;0,004130499
109120,3;0,004123167
109136,3;0,004114369
109152,9;0,004114369
109169,6;0,004120235
109186,3;0,004120235
109202,6;0,004130499
109219,4;0,004130499
109235,7;0,004134898
109252,3;0,00413783
109268,8;0,00413783
109285,7;0,004120235
109302,3;0,004120235
109318,7;0,00413783
109335,1;0,004131965
109352,2;0,004120235
109376,6;0,004133431
109384,9;0,004139296
109401,4;0,004139296
109417,9;0,004156892
109434,9;0,00414956
109451,3;0,004153959
109467,6;0,004148094
109484,6;0,004148094
109501;0,004151026
109518,3;0,00413783
109534,1;0,004142229
109550,5;0,004142229
109567,2;0,004143695
109583,6;0,004156892
109600,2;0,00416129
109616,8;0,00416129
109633,5;0,00416129
109650;0,004155425
109666,4;0,004156892
109683,7;0,004159824
109699,6;0,004170088
109716,1;0,004158358
109732,7;0,004162757
109749,3;0,004158358
109765,8;0,004156892
109782,6;0,004170088
109799;0,00416129
109815,5;0,004151026
109832,2;0,004148094
109848,7;0,00414956
109865,2;0,004155425
109881,9;0,00414956
109898,4;0,004165689
109914,9;0,004167155
109931,5;0,004164223
109948,1;0,004165689
109964,8;0,004165689
109981,7;0,004170088
109997,8;0,004177419
110014,3;0,004171554
110030,9;0,004174487
110047,5;0,004175953
110064,2;0,004170088
110080,6;0,004156892
110097,3;0,004181818
110113,8;0,004180352
110130,3;0,004159824
110146,9;0,00416129
110163,4;0,00416129
110180;0,004171554
110196,6;0,004174487
110213,3;0,004171554
110229,8;0,004164223
110246,4;0,004165689
110262,8;0,004168622
110279,8;0,004168622
110296,1;0,004165689
110312,7;0,004170088
110329,1;0,004159824
110345,7;0,004167155
110362,2;0,004178886
110378,8;0,004177419
110395,5;0,004162757
110411,9;0,004167155
110428,9;0,004164223
110445,1;0,004164223
110461,9;0,004165689
110478,6;0,00417302
110494,8;0,00417302
110511,8;0,004187683
110527,9;0,004187683
110544,5;0,004196481
110561;0,004208211
110577,6;0,004197947
110594,2;0,004193549
110611;0,004199414
110627,3;0,004184751
110643,9;0,004184751
110661;0,004203812
110677,8;0,004205279
110693,7;0,004221408
110710,3;0,004221408
110726,7;0,004222874
110743,3;0,004217009
110759,9;0,004217009
110776,4;0,004221408
110793;0,00422434
110809,5;0,004211144
110826,3;0,004215543
110843;0,004211144
110859,2;0,004209678
110875,8;0,004222874
110892,4;0,004214076
110908,9;0,004206745
110925,6;0,004206745
110942,1;0,004206745
110958,6;0,004202346
110975,2;0,004209678
110991,8;0,004209678
111008,3;0,004211144
111025;0,004221408
111041,7;0,00421261
111058;0,004219941
111074,6;0,004219941
111091,2;0,00422434
111108;0,00422434
111124,3;0,004228739
111140,9;0,004240469
111157,6;0,004241935
111174;0,00423607
111190,6;0,004233138
111207,1;0,004244868
111223,7;0,004249267
111240,3;0,004250733
111256,9;0,004253666
111273,7;0,004253666
111290,1;0,004253666
111306,7;0,004253666
111323,1;0,0042522
111339,8;0,004260997
111356,3;0,004277126
111372,8;0,004266862
111389,4;0,004271261
111405,9;0,00428739
111422,5;0,004274194
111439,1;0,004284457
111455,6;0,00427566
111472,2;0,004277126
111489,3;0,004284457
111506,2;0,00428739
111522,4;0,00428739
111539;0,004288856
111555,7;0,004288856
111572,1;0,00428739
111588,7;0,00428739
111605,5;0,004297654
111621,8;0,004277126
111638,4;0,004274194
111655;0,004285924
111671,5;0,004285924
111688,1;0,004284457
111704,7;0,004280059
111721,6;0,004290323
111737,8;0,004291789
111754,5;0,004291789
111771,2;0,004300586
111787,6;0,004306452
111804,1;0,004293255
111820,6;0,004297654
111837,2;0,004299121
111853,8;0,004309384
111870,8;0,00432698
111886,9;0,004319648
111903,5;0,004315249
111920;0,004315249
111936,9;0,004319648
111953,3;0,004324047
111970,1;0,004334311
111986,7;0,004341642
112002,9;0,004344575
112019,4;0,004344575
112036;0,004347507
112052,6;0,004351906
112069,1;0,004351906
112085,7;0,004341642
112102,4;0,004334311
112118,9;0,004334311
112135,4;0,004348974
112152,1;0,004347507
112168,6;0,004340176
112185,1;0,00432698
112202,2;0,00432698
112218,7;0,004328446
112234,8;0,004328446
112251,4;0,004319648
112268,1;0,004331378
112284,5;0,004347507
112301,2;0,004351906
112317,6;0,004346041
112334,2;0,00435044
112350,8;0,004348974
112367,3;0,004351906
112384,5;0,004337243
112400,5;0,004346041
112417;0,004344575
112433,6;0,004357771
112450,2;0,004348974
112466,7;0,004348974
112483,3;0,004346041
112500,6;0,004318182
112516,4;0,004318182
112533,8;0,004331378
112549,8;0,004307918
112567,1;0,004294721
112582,7;0,004294721
112599,3;0,004313783
112615,8;0,004302053
112632,4;0,004302053
112649,3;0,004310851
112665,5;0,004299121
112682,1;0,004291789
112698,7;0,004290323
112715,2;0,004290323
112732;0,004290323
112748,4;0,004293255
112764,9;0,004304986
112781,5;0,004300586
112798,1;0,004303519
112814,6;0,004306452
112831,2;0,004306452
112847,8;0,004302053
112864,3;0,004293255
112880,9;0,004302053
112897,5;0,004306452
112914;0,004316716
112930,6;0,004312317
112947,6;0,004316716
112963,8;0,004304986
112980,3;0,004304986
112996,9;0,004319648
113013,6;0,004307918
113030;0,004313783
113047,2;0,004322581
113063,1;0,004309384
113079,7;0,004307918
113096,3;0,004315249
113112,8;0,004296188
113129,4;0,004297654
113146;0,004306452
113162,5;0,004296188
113179,7;0,004297654
113195,7;0,004297654
113212,2;0,004300586
113228,8;0,004293255
113245,4;0,004299121
113262;0,004297654
113278,7;0,004294721
113295,3;0,004309384
113311,7;0,004306452
113328,5;0,004294721
113344,8;0,004302053
113361,8;0,004285924
113377,9;0,004291789
113394,5;0,004291789
113411;0,004291789
113427,6;0,004299121
113444,2;0,004299121
113460,7;0,004310851
113478;0,004310851
113494,1;0,004304986
113510,4;0,004297654
113527,2;0,004296188
113543,6;0,004312317
113560,9;0,004312317
113580,5;0,004312317
113593,3;0,004313783
113609,8;0,004329912
113626,4;0,004332845
113643,1;0,004332845
113659,5;0,00432698
113676,5;0,004321115
113693;0,004325513
113709,6;0,004324047
113725,8;0,004318182
113742,4;0,004324047
113758,9;0,00432698
113775,5;0,004313783
113792,1;0,004318182
113809;0,004318182
113825,2;0,004306452
113841,8;0,004316716
113858,3;0,004324047
113875,3;0,004297654
113891,5;0,004306452
113908;0,004307918
113924,6;0,004318182
113941,3;0,004316716
113957,7;0,004302053
113974,3;0,004310851
113991;0,004290323
114007,4;0,004296188
114024,3;0,004300586
114040,6;0,004293255
114057,1;0,004291789
114073,7;0,004300586
114090,3;0,004318182
114106,8;0,004318182
114123,5;0,004324047
114140;0,004319648
114156,5;0,004316716
114173,4;0,004340176
114189,7;0,004340176
114207,1;0,004346041
114223,2;0,004348974
114239,5;0,004356305
114255,9;0,004356305
114272,5;0,004344575
114289,4;0,004329912
114305,9;0,004316716
114322,2;0,004318182
114338,8;0,004324047
114355,7;0,004324047
114372;0,004318182
114388,6;0,004331378
114406;0,004324047
114421,6;0,004329912
114438,6;0,004332845
114454,7;0,004337243
114471,3;0,004332845
114487,9;0,004321115
114504,5;0,004319648
114521,4;0,004325513
114537,6;0,004341642
114554,2;0,004341642
114570,8;0,004346041
114587,3;0,004375366
114605,3;0,004369501
114621,8;0,0043739
114638,6;0,004384164
114655;0,004375366
114671,7;0,004372434
114688,1;0,004370968
114704,7;0,004368035
114721,2;0,004368035
114737,8;0,004369501
114754,4;0,004369501
114770,9;0,004369501
114787,8;0,004370968
114804,8;0,004369501
114820,6;0,004357771
114837,3;0,004365103
114854,4;0,004357771
114870,3;0,004356305
114886,9;0,004359237
114904;0,004354839
114920;0,004347507
114936,6;0,004348974
114953,3;0,004344575
114969,7;0,004354839
114986,3;0,004344575
115002,9;0,00433871
115019,4;0,004354839
115036;0,004356305
115053,1;0,004356305
115069,1;0,004351906
115085,8;0,004351906
115102,3;0,004353372
115119;0,004351906
115135,4;0,004354839
115152;0,00435044
115168,5;0,004353372
115185,1;0,004354839
115201,7;0,004354839
115218,3;0,004346041
115234,8;0,004351906
115252,1;0,004351906
115267,9;0,004353372
115284,5;0,00435044
115301,4;0,004343109
115317,8;0,004334311
115334,2;0,004334311
115350,8;0,004334311
115367,3;0,004346041
115383,9;0,004337243
115400,5;0,004337243
115417;0,004337243
115433,7;0,004329912
115450,4;0,00432698
115466,8;0,004321115
115483,3;0,004309384
115500,1;0,004302053
115516,4;0,004324047
115533,8;0,004318182
115549,6;0,004315249
115566,2;0,004310851
115582,8;0,004302053
115599,3;0,004304986
115615,8;0,004302053
115639,2;0,004303519
115649;0,004306452
115665,5;0,004302053
115682,1;0,004322581
115698,7;0,004319648
115715,2;0,004328446
115731,8;0,004325513
115748,4;0,004321115
115764,9;0,004315249
115781,7;0,004324047
115798,1;0,004319648
115814,6;0,004318182
115831,3;0,004325513
115847,8;0,004325513
115864,3;0,004324047
115880,9;0,004325513
115897,5;0,004329912
115914;0,004324047
115930,6;0,004321115
115947,2;0,004321115
115963,7;0,004310851
115980,8;0,004316716
115996,9;0,004316716
116014,3;0,004304986
116030;0,004304986
116046,6;0,004302053
116063,3;0,004306452
116080;0,004312317
116096,3;0,004306452
116113;0,004293255
116129,4;0,004315249
116146;0,004318182
116162,6;0,004309384
116179,2;0,004322581
116195,7;0,004309384
116212,2;0,004302053
116228,8;0,004313783
116245,8;0,004313783
116261,9;0,004313783
116279,3;0,004309384
116295,1;0,004310851
116311,8;0,004310851
116328,8;0,004312317
116345;0,004315249
116361,4;0,004312317
116377,9;0,004307918
116394,5;0,004310851
116411,5;0,004303519
116427,6;0,004307918
116444,3;0,004312317
116460,7;0,004316716
116477,4;0,004312317
116493,9;0,004312317
116510,4;0,004309384
116527;0,004307918
116543,6;0,004296188
116560,1;0,004285924
116576,7;0,00428739
116593,3;0,004277126
116609,8;0,004265396
116626,4;0,004266862
116643;0,004256598
116659,5;0,0042522
116676,2;0,0042522
116692,7;0,0042522
116709,2;0,0042522
116726,2;0,004253666
116742,4;0,004249267
116758,9;0,004246335
116775,5;0,00423607
116792,1;0,004233138
116809,3;0,004243402
116825,3;0,004243402
116841,8;0,004249267
116858,3;0,004243402
116874,9;0,004241935
116891,5;0,004244868
116908;0,0042522
116925,2;0,004253666
116941,2;0,004253666
116957,7;0,004237537
116975,3;0,004233138
116991,6;0,004221408
117007,4;0,004218475
117024;0,004221408
117040,6;0,004205279
117057,1;0,004214076
117073,7;0,004203812
117090,3;0,004202346
117106,9;0,004217009
117123,4;0,00423607
117140,1;0,004241935
117156,5;0,004221408
117173,1;0,004218475
117190;0,004228739
117206,2;0,004219941
117223,3;0,004214076
117239,4;0,004221408
117256,2;0,004219941
117272,5;0,00422434
117289,1;0,004239003
117305,6;0,004237537
117322,5;0,004250733
117339;0,004250733
117355,3;0,004244868
117371,9;0,004241935
117388,5;0,004233138
117405,2;0,004244868
117421,6;0,004241935
117438,2;0,004243402
117455;0,004259531
117471,9;0,004255132
117487,9;0,004244868
117504,4;0,004243402
117521;0,004244868
117537,6;0,00423607
117555;0,00423607
117571,5;0,004243402
117587,3;0,004249267
117604,3;0,004240469
117620,4;0,004244868
117637,3;0,004253666
117654,3;0,004262463
117670,1;0,004258065
117686,7;0,004258065
117703,5;0,004243402
117721,4;0,004244868
117736,4;0,004230205
117752,9;0,004228739
117769,6;0,004241935
117786,1;0,00423607
117802,8;0,004228739
117819,5;0,004215543
117836,5;0,004215543
117852,3;0,004205279
117868,9;0,00421261
117885,9;0,004206745
117902,3;0,004219941
117919,2;0,004217009
117935,2;0,004225806
117951,7;0,004219941
117969,2;0,004231672
117984,9;0,004231672
118001,4;0,004218475
118018;0,004228739
118034,6;0,00422434
118051,8;0,004221408
118067,7;0,004225806
118084,7;0,004222874
118101,3;0,004222874
118117,4;0,00421261
118134;0,004211144
118150,8;0,004211144
118167,3;0,004209678
118183,7;0,004205279
118200,2;0,004211144
118217,2;0,004230205
118233,4;0,004211144
118249,9;0,004219941
118266,5;0,004208211
118283,1;0,004214076
118299,6;0,00422434
118316,2;0,004233138
118332,8;0,004230205
118349,3;0,004233138
118366,1;0,00423607
118382,5;0,004269795
118399,5;0,004258065
118416,1;0,0042522
118432,6;0,004268329
118448,9;0,004262463
118465,4;0,004243402
118481,9;0,004250733
118498,5;0,004258065
118515;0,00426393
118531,8;0,00427566
118548,1;0,004274194
118565;0,004278592
118581,7;0,004300586
118598,2;0,004300586
118614,4;0,004300586
118631,3;0,004302053
118647,6;0,004304986
118664,8;0,004302053
118680,7;0,004300586
118697,5;0,004300586
118713,9;0,004304986
118730,6;0,004307918
118746,9;0,004303519
118763,5;0,004310851
118786,3;0,004281525
118786,3;0,004284457
118806,3;0,004265396
118822,9;0,004272727
118839,5;0,004272727
118856,4;0,004278592
118872,6;0,00427566
118889,2;0,00427566
118906,1;0,004272727
118922,3;0,004272727
118939,1;0,004266862
118955,4;0,004259531
118972,7;0,00427566
118988,8;0,00427566
119005,1;0,004265396
119022,1;0,004262463
119038,3;0,004268329
119055,1;0,004266862
119071,4;0,004266862
119088;0,004266862
119104,6;0,004271261
119121,3;0,004271261
119138;0,004250733
119154,2;0,004246335
119171;0,004246335
119187,4;0,004246335
119203,9;0,0042522
119220,5;0,00423607
119237,1;0,004244868
119253,6;0,004240469
119270,2;0,0042478
119286,8;0,004246335
119303,5;0,0042522
119319,9;0,004246335
119336,5;0,004255132
119353,1;0,004255132
119369,6;0,004255132
119386,4;0,004256598
119402,8;0,004256598
119419,3;0,004258065
119436;0,004219941
119452,4;0,004208211
119469;0,004209678
119486,1;0,00421261
119502,5;0,004211144
119518,7;0,004206745
119535,3;0,004208211
119551,8;0,004206745
119568,4;0,004203812
119585;0,004192082
119601,7;0,004184751
119618,4;0,004190616
119634,7;0,004193549
119651,3;0,004175953
119667,8;0,004158358
119684,4;0,004168622
119701,5;0,004136364
119722,4;0,004140763
119734,1;0,004142229
119751,1;0,004146628
119767,2;0,004145161
119783,8;0,004151026
119800,3;0,00413783
119816,9;0,00413783
119833,5;0,004127566
119850,2;0,004131965
119866,8;0,004131965
119883,2;0,004105572
119899,7;0,004108504
119916,6;0,004105572
119932,9;0,004107038
119949,6;0,004111437
119966,8;0,004105572
119982,9;0,004114369
119999,1;0,004114369
120015,7;0,004114369
120032,7;0,004111437
120048,8;0,004099707
120065,7;0,004087977
120082;0,004087977
120098,5;0,004076246
120115,1;0,004080645
120131,7;0,004102639
120148,2;0,004096774
120165;0,004099707
120181,4;0,004093842
120198,4;0,004093842
120214,5;0,004089443
120231,1;0,004092375
120247,8;0,004096774
120264,2;0,004102639
120280,8;0,004107038
120297,3;0,004104106
120314,5;0,004101173
120330,5;0,004095308
120347;0,004095308
120364,1;0,004090909
120380,2;0,004082112
120396,8;0,00406305
120413,3;0,00408651
120430,2;0,004087977
120446,4;0,004096774
120463;0,004102639
120479,9;0,004102639
120496,3;0,004104106
120512,7;0,004109971
120529,3;0,004108504
120546;0,004115836
120562,4;0,004121701
120579,4;0,004107038
120595,5;0,004118768
120612,4;0,004112903
120628,7;0,004112903
120645,2;0,004112903
120661,8;0,004112903
120678,5;0,004120235
120694,9;0,004117302
120711,5;0,0041261
120728,1;0,004112903
120744,7;0,004109971
120761,2;0,004115836
120777,8;0,004115836
120794,3;0,004115836
120811,1;0,004115836
120827,9;0,004111437
120844;0,004123167
120860,6;0,004099707
120877,2;0,004099707
120893,7;0,004108504
120910,3;0,004096774
120926,9;0,004099707
120943,4;0,004105572
120960;0,004095308
120976,6;0,004085044
120993,1;0,004085044
121009,7;0,004079179
121026,3;0,004079179
121043,2;0,004093842
121059,6;0,004104106
121076,2;0,004104106
121092,5;0,004089443
121109,1;0,004077713
121125,7;0,004079179
121142,5;0,004079179
121158,8;0,004087977
121175,5;0,004089443
121191,9;0,004093842
121208,9;0,004105572
121225,1;0,004109971
121241,8;0,004111437
121258,2;0,004112903
121274,8;0,004112903
121291,6;0,004112903
121307,9;0,004112903
121324,6;0,004118768
121341;0,004112903
121357,9;0,004114369
121374,2;0,004112903
121390,7;0,004117302
121407,3;0,004131965
121423,9;0,004131965
121440,4;0,004133431
121457,1;0,004136364
121473,9;0,004130499
121490,1;0,004130499
121506,7;0,004130499
121523,3;0,004146628
121539,8;0,004153959
121556,4;0,004158358
121573;0,004158358
121589,7;0,004158358
121606,1;0,004159824
121622,7;0,004159824
121639,4;0,004159824
121655,8;0,004153959
121672,4;0,004167155
121689;0,004183284
121705,5;0,004171554
121722,1;0,00417302
121738,6;0,00417302
121755,6;0,004186217
121771,8;0,004193549
121788,3;0,004206745
121804,9;0,004192082
121821,6;0,004209678
121838;0,004206745
121854,7;0,004196481
121871,2;0,004190616
121887,7;0,004192082
121904,3;0,004203812
121920,9;0,004203812
121937,4;0,004215543
121954,2;0,004205279
121970,6;0,004193549
121987,1;0,004193549
122003,7;0,004195014
122020,3;0,004187683
122037,1;0,004186217
122053,6;0,004177419
122070;0,004170088
122086,9;0,004181818
122103,2;0,004181818
122119,7;0,004170088
122136,3;0,004156892
122152,8;0,004171554
122169,6;0,004167155
122185,9;0,004155425
122202,9;0,00416129
122219,1;0,004162757
122235,7;0,004165689
122252,2;0,004158358
122269,3;0,00414956
122285,6;0,004159824
122302,1;0,004167155
122318,7;0,004162757
122335,3;0,004168622
122352,2;0,004164223
122368,7;0,004174487
122384,7;0,004167155
122401,3;0,00417302
122417,9;0,004159824
122434,8;0,004167155
122451;0,00416129
122467,8;0,004155425
122484,2;0,00416129
122500,7;0,004155425
122517,3;0,004146628
122533,8;0,004145161
122550,6;0,004145161
122567,1;0,004146628
122583,5;0,004148094
122600,1;0,004142229
122616,7;0,004152493
122633,3;0,004152493
122649,8;0,004153959
122666,5;0,00416129
122683,3;0,00416129
122699,5;0,004170088
122716,1;0,004153959
122732,8;0,004153959
122749,7;0,004152493
122765,8;0,004136364
122782,3;0,004152493
122798,9;0,004142229
122815,8;0,004136364
122832,5;0,004124634
122848,8;0,004139296
122865,4;0,004145161
122881,9;0,004156892
122898,5;0,004153959
122915;0,004148094
122931,6;0,004151026
122948,2;0,004156892
122964,7;0,004159824
122981,5;0,004159824
122997,9;0,004175953
123014,5;0,004178886
123031;0,004184751
123047,6;0,004174487
123064,6;0,004183284
123080,7;0,004181818
123097,3;0,004183284
123113,8;0,004183284
123130,4;0,004190616
123147;0,004180352
123163,5;0,004180352
123180,1;0,004186217
123197,1;0,004183284
123213,2;0,004178886
123230,3;0,004178886
123246,4;0,004177419
123262,9;0,004181818
123279,5;0,004189149
123296,5;0,004187683
123312,6;0,004178886
123329,2;0,00417302
123345,8;0,004165689
123362,8;0,004153959
123379;0,004155425
123395,5;0,004162757
123412;0,00417302
123429;0,004177419
123445,2;0,004175953
123462,1;0,004175953
123478,3;0,004168622
123494,9;0,004183284
123511,4;0,004177419
123528;0,004184751
123544,6;0,004189149
123561,1;0,004184751
123578,2;0,004177419
123594,3;0,004177419
123610,8;0,004174487
123627,4;0,004180352
123644;0,004181818
123660,5;0,00417302
123677,2;0,004171554
123693,7;0,004171554
123710,2;0,004171554
123727,5;0,004164223
123743,4;0,004164223
123760,2;0,004164223
123776,5;0,004167155
123793,1;0,00417302
123810,1;0,00417302
123826,2;0,00417302
123842,8;0,00417302
123859,4;0,00417302
123876;0,004165689
123893;0,004164223
123909,3;0,004158358
123925,6;0,004164223
123942,2;0,004162757
123959,3;0,004165689
123975,3;0,004168622
123992;0,004156892
124008,5;0,004183284
124025,1;0,00416129
124041,9;0,004165689
124058,1;0,004175953
124075,4;0,004181818
124091,4;0,004181818
124108,2;0,004189149
124125;0,004190616
124141,5;0,004189149
124157,5;0,004183284
124174,3;0,004193549
124190,7;0,00420088
124207,2;0,004202346
124223,8;0,004205279
124240,4;0,004202346
124257,1;0,004205279
124273,5;0,004211144
124290,4;0,004211144
124306,6;0,004211144
124323,6;0,004211144
124339,8;0,004218475
124356,3;0,004209678
124372,9;0,00421261
124389,5;0,004217009
124406,4;0,004219941
124422,6;0,00421261
124439,4;0,004222874
124455,7;0,004227273
124472,3;0,00423607
124488,9;0,004241935
124505,4;0,004231672
124522;0,004230205
124538,7;0,004231672
124555,4;0,004227273
124572,5;0,004219941
124588,8;0,004222874
124604,8;0,00422434
124622,1;0,004233138
124638;0,00423607
124654,6;0,004231672
124671,1;0,004240469
124687,7;0,0042522
124704,8;0,004265396
124720,8;0,004272727
124737,6;0,004282991
124753,9;0,004282991
124770,5;0,004312317
124787,1;0,00429912
124803,7;0,004304986
124820,2;0,004303519
124837,1;0,004307918
124854,1;0,004312317
124870;0,004316716
124886,5;0,004315249
124903;0,004304986
124919,6;0,004309384
124936,8;0,004315249
124952,9;0,004324047
124969,3;0,004315249
124985,9;0,004313783
125002,4;0,004313783
125019;0,004321115
125035,6;0,004310851
125052,6;0,004310851
125068,8;0,004310851
125085,3;0,004313783
125102;0,004324047
125118,7;0,004324047
125135;0,004328446
125151,5;0,004316716
125168,1;0,004329912
125184,7;0,004325513
125201,3;0,004319648
125218,2;0,004312317
125234,4;0,004313783
125250,9;0,004315249
125267,5;0,004300586
125284,1;0,004303519
125300,8;0,004321115
125317,2;0,004334311
125333,8;0,004322581
125350,3;0,004328446
125367,4;0,004334311
125384,3;0,004328446
125400,1;0,004328446
125416,9;0,004329912
125433,2;0,004316716
125450;0,004319648
125466,3;0,00432698
125482,9;0,00432698
125499,8;0,004334311
125516;0,004321115
125533,1;0,004319648
125549,6;0,00429912
125565,7;0,004310851
125582,3;0,004316716
125599,2;0,004321115
125615,8;0,004335777
125632,5;0,004337243
125648,5;0,004328446
125665,4;0,004331378
125681,7;0,004324047
125698,6;0,004329912
125714,8;0,004351906
125731,4;0,00436217
125747,9;0,004359237
125764,9;0,004360704
125781,7;0,004356305
125797,6;0,004353372
125814,2;0,004357771
125830,8;0,004357771
125847,5;0,004357771
125864;0,004378299
125880,5;0,004388563
125897;0,004387097
125913,6;0,004390029
125930,2;0,004388563
125946,8;0,004382698
125963,3;0,004382698
125979,9;0,004379766
125996,6;0,004378299
126013;0,004379766
126029,6;0,004395895
126046,1;0,004410557
126062,8;0,00441349
126079,3;0,004412023
126095,8;0,004426686
126112,4;0,004422287
126129;0,004434017
126145,5;0,004431085
126162,6;0,004428152
126178,8;0,004422287
126195,2;0,004423754
126211,8;0,004423754
126228,4;0,004414956
126244,9;0,00442522
126261,5;0,004398827
126278,1;0,004410557
126294,8;0,004394428
126311,4;0,004407625
126328;0,004391496
126344,3;0,004395895
126360,9;0,004387097
126377,5;0,004372434
126394,4;0,004372434
126410,6;0,004378299
126427,3;0,004375366
126444,1;0,004376833
126460,3;0,004379766
126477,5;0,004379766
126493,4;0,004379766
126510,3;0,004372434
126526,6;0,004372434
126543,5;0,004385631
126559,7;0,004378299
126576,3;0,004376833
126593,5;0,004376833
126609,5;0,004375366
126626;0,004376833
126642,5;0,004376833
126659,1;0,004379766
126675,7;0,004372434
126692,5;0,004378299
126708,9;0,004370968
126725,4;0,004370968
126742,3;0,004363636
126759,3;0,004351906
126775,1;0,004347507
126791,6;0,004337243
126808,4;0,004334311
126824,8;0,004343109
126842,3;0,004343109
126857,9;0,004340176
126874,5;0,00432698
126891,1;0,004331378
126907,6;0,004319648
126924,2;0,004319648
126940,7;0,004328446
126957,3;0,004318182
126973,9;0,004344575
126990,4;0,004332845
127007;0,004332845
127023,6;0,004329912
127040,5;0,004328446
127056,7;0,004346041
127073,6;0,004348974
127090,2;0,004324047
127106,4;0,004325513
127123,5;0,004322581
127139,5;0,004319648
127156,2;0,004324047
127172,7;0,004325513
127189,2;0,004316716
127205,8;0,004322581
127223;0,004322581
127238,9;0,004316716
127255,6;0,004321115
127272,1;0,004321115
127288,6;0,004321115
127305,2;0,004325513
127321,8;0,004316716
127338,3;0,004310851
127354,9;0,004302053
127371,5;0,004310851
127388;0,004303519
127404,6;0,004303519
127421,2;0,004312317
127437,7;0,004304986
127454,3;0,004296188
127470,9;0,004296188
127487,4;0,00429912
127504;0,004288856
127520,9;0,004277126
127537,1;0,004281525
127553,7;0,004281525
127570,3;0,004269795
127586,9;0,004268329
127603,6;0,004262463
127620;0,004250733
127636,8;0,004244868
127653,2;0,0042478
127669,7;0,0042522
127686,3;0,004259531
127702,8;0,004259531
127719,4;0,0042478
127736,2;0,004237537
127752,5;0,004241935
127769,1;0,004249267
127785,6;0,004240469
127802,2;0,004240469
127819,1;0,004231672
127835,3;0,004214076
127852;0,004215543
127868,5;0,004214076
127885;0,004205279
127901,6;0,004209678
127918,7;0,004215543
127934,9;0,004215543
127951,3;0,00421261
127967,9;0,004214076
127984,6;0,004208211
128001;0,00421261
128017,6;0,004202346
128034,6;0,004197947
128050,7;0,004178886
128067,3;0,004168622
128084,6;0,004162757
128100,4;0,004159824
128117;0,004159824
128133,5;0,004159824
128150,1;0,004158358
128166,8;0,004171554
128183,6;0,004177419
128200,3;0,004180352
128216,6;0,004190616
128233;0,004180352
128249,5;0,004175953
128266,1;0,004180352
128282,8;0,004180352
128299,2;0,004178886
128315,8;0,004197947
128332,3;0,004197947
128348,9;0,004197947
128365,5;0,004193549
128382;0,004195014
128399;0,004208211
128415,2;0,004196481
128432,5;0,004209678
128448,3;0,004215543
128465,3;0,004215543
128481,9;0,004228739
128498;0,004227273
128514,6;0,004209678
128531,1;0,004225806
128547,8;0,004228739
128564,3;0,004218475
128580,8;0,004230205
128597,5;0,00423607
128614;0,004231672
128630,7;0,004230205
128647,2;0,00421261
128663,7;0,004217009
128680,2;0,004215543
128697,2;0,004215543
128713,4;0,004215543
128730;0,004221408
128746,5;0,004221408
128763,3;0,004230205
128779,6;0,004233138
128796,2;0,004241935
128812,9;0,004239003
128829,3;0,004230205
128846,5;0,004234604
128862,7;0,004231672
128879;0,00423607
128896,3;0,00423607
128912,5;0,004237537
128928,7;0,0042478
128945,3;0,004243402
128961,9;0,0042478
128978,4;0,0042478
128995;0,004234604
129011,7;0,004233138
129028,1;0,004225806
129044,8;0,004227273
129061,5;0,004233138
129078,1;0,004241935
129094,5;0,004240469
129111;0,004237537
129127,5;0,004237537
129144,1;0,004244868
129160,7;0,004240469
129177,3;0,004237537
129193,8;0,004237537
129210,4;0,004250733
129226,9;0,004240469
129243,5;0,004241935
129260,1;0,004239003
129276,7;0,004234604
129293,3;0,004230205
129309,8;0,004227273
129326,5;0,00423607
129343,2;0,00423607
129359,5;0,00423607
129376,2;0,004228739
129393,1;0,004237537
129409,2;0,004237537
129426,2;0,004233138
129442,3;0,00423607
129459;0,004239003
129476;0,004239003
129492;0,004228739
129508,6;0,004244868
129525,2;0,0042522
129541,9;0,004259531
129558,3;0,00426393
129574,8;0,004268329
129591,5;0,004265396
129608;0,004265396
129624,5;0,004265396
129641,1;0,004266862
129657,8;0,00426393
129674,2;0,004255132
129690,8;0,004259531
129707,4;0,004262463
129723,9;0,0042522
129740,6;0,004255132
129757,1;0,004250733
129773,6;0,004250733
129790,2;0,004260997
129806,8;0,004253666
129823,4;0,004271261
129840,2;0,004260997
129856,5;0,004260997
129873;0,004269795
129889,6;0,004265396
129906,3;0,004258065
129923,2;0,004258065
129939,3;0,004262463
129955,9;0,00427566
129972,4;0,004274194
129989,5;0,004280059
130006,4;0,004280059
130022,1;0,004274194
130038,9;0,004269795
130055,3;0,004288856
130071,8;0,004284457
130088,6;0,004278592
130105;0,004274194
130122,2;0,004291789
130138,1;0,004297654
130155,2;0,004288856
130171,3;0,00428739
130187,8;0,004277126
130204,4;0,004269795
130221,1;0,004262463
130237,5;0,004262463
130254,5;0,00426393
130270,6;0,00426393
130287,7;0,004256598
130303,8;0,004249267
130320,5;0,004253666
130336,9;0,004253666
130353,5;0,004253666
130370,5;0,0042522
130386,7;0,004246335
130403,2;0,004255132
130419,8;0,004249267
130436,7;0,004249267
130453;0,004243402
130469,4;0,004244868
130486;0,004249267
130502,6;0,004239003
130519,1;0,0042478
130535,7;0,004237537
130552,3;0,004228739
130569,8;0,004234604
130585,4;0,00422434
130602;0,004206745
130618,5;0,004211144
130635,3;0,004211144
130651,7;0,00420088
130668,4;0,004209678
130684,8;0,004202346
130701,4;0,00421261
130717,9;0,004208211
130734,5;0,004205279
130751,1;0,004202346
130767,9;0,004193549
130784,2;0,004197947
130801,1;0,004199414
130817,5;0,004193549
130833,9;0,004196481
130850,5;0,004192082
130867,2;0,004205279
130884;0,004208211
130900,2;0,004208211
130917,3;0,004202346
130933,3;0,004177419
130950,2;0,004174487
130966,4;0,004190616
130983,1;0,004175953
130999,7;0,004181818
131016,2;0,004189149
131032,7;0,004186217
131049,3;0,004181818
131065,8;0,004189149
131082,4;0,004184751
131099,5;0,004195014
131115,5;0,004195014
131132,5;0,004184751
131149,5;0,004183284
131165,2;0,004180352
131181,8;0,004196481
131198,5;0,004196481
131214,9;0,004199414
131231,5;0,004203812
131248,1;0,004195014
131264,7;0,004202346
131281,5;0,004211144
131297,8;0,00421261
131314,5;0,00421261
131330,9;0,004214076
131347,5;0,004217009
131364;0,00422434
131380,6;0,00421261
131397,2;0,004228739
131413,8;0,004219941
131430,3;0,004222874
131446,9;0,004231672
131463,4;0,00423607
131480;0,004231672
131496,8;0,004222874
131513,1;0,004228739
131529,7;0,004228739
131546,4;0,004228739
131563,5;0,004227273
131579,6;0,004243402
131596;0,00423607
131613;0,004241935
131629,1;0,004241935
131645,8;0,004262463
131662,9;0,004266862
131678,8;0,004271261
131695,4;0,00427566
131711,9;0,004281525
131728,6;0,004281525
131745,1;0,004259531
131761,6;0,004260997
131778,4;0,004255132
131795;0,004258065
131811,8;0,004255132
131827,9;0,004253666
131844,5;0,004271261
131861;0,004256598
131877,6;0,004266862
131894,2;0,004268329
131910,7;0,004259531
131927,3;0,004244868
131944,3;0,004241935
131960,5;0,004237537
131977;0,004237537
131993,9;0,0042522
132010,1;0,004262463
132026,7;0,004265396
132043,3;0,004274194
132059,8;0,00426393
132076,4;0,004253666
132093;0,004255132
132109,6;0,004268329
132126,1;0,0042478
132142,7;0,0042478
132159,2;0,0042478
132175,8;0,004258065
132192,4;0,004258065
132209,2;0,004255132
132225,5;0,0042522
132242,5;0,004258065
132258,6;0,004260997
132275,2;0,004265396
132291,8;0,004253666
132308,4;0,004259531
132325,4;0,004253666
132341,5;0,004256598
132358;0,00426393
132375,4;0,004266862
132391,3;0,004266862
132407,8;0,004290323
132424,3;0,004278592
132440,9;0,004268329
132457,5;0,004278592
132474;0,004274194
132490,6;0,004272727
132507,1;0,004274194
132523,7;0,004281525
132540,3;0,004282991
132556,8;0,004282991
132573,4;0,004274194
132590,4;0,004280059
132606,5;0,004288856
132623,4;0,004294721
132639,7;0,004304986
132656,3;0,004294721
132672,8;0,004294721
132689,4;0,004300586
132706,4;0,004300586
132723,1;0,004304986
132739,1;0,004318182
132755,6;0,004303519
132772,2;0,004303519
132788,8;0,004303519
132806,1;0,004302053
132821,9;0,004309384
132838,5;0,004312317
132855;0,004325513
132871,9;0,00432698
132888,3;0,004324047
132905,1;0,004332845
132921,3;0,00433871
132937,9;0,004340176
132955,1;0,004347507
132971;0,004344575
132987,6;0,004344575
133004,2;0,00432698
133021,1;0,004310851
133037,3;0,004310851
133053,8;0,004306452
133071;0,004306452
133087;0,004282991
133103,5;0,004288856
133120,1;0,004291789
133136,7;0,004284457
133153,3;0,00427566
133169,8;0,004268329
133186,4;0,004272727
133203;0,004256598
133219,6;0,004256598
133236,4;0,004266862
133252,9;0,00426393
133269,2;0,004260997
133285,9;0,004241935
133302,3;0,00423607
133318,9;0,004234604
133335,5;0,00423607
133352;0,004231672
133368,6;0,004234604
133385,2;0,004234604
133401,8;0,004234604
133418,4;0,004237537
133435;0,004225806
133451,9;0,004228739
133468;0,004228739
133484,6;0,004214076
133501,1;0,004228739
133517,7;0,004231672
133534,3;0,004237537
133550,8;0,004285924
133568,2;0,004291789
133584,4;0,004284457
133600,5;0,004265396
133617,2;0,004274194
133633,7;0,004282991
133650,2;0,004268329
133666,8;0,004266862
133683,4;0,004269795
133700;0,004259531
133716,5;0,004266862
133733,1;0,004271261
133749,7;0,004291789
133766,3;0,004282991
133783,1;0,004280059
133799,7;0,004280059
133815,9;0,004282991
133832,5;0,004293255
133849;0,004282991
133865,6;0,004280059
133882,3;0,00427566
133898,8;0,004284457
133915,4;0,00429912
133932,2;0,004300586
133948,4;0,004302053
133965,3;0,004304986
133981,6;0,004282991
133998,3;0,004282991
134014,7;0,004280059
134031,4;0,00429912
134047,8;0,00429912
134064,4;0,004300586
134081;0,004300586
134097,5;0,004302053
134114,4;0,004302053
134130,7;0,004290323
134147,3;0,004290323
134163,8;0,004284457
134180,4;0,004290323
134197,4;0,004277126
134213,5;0,004274194
134230,2;0,004278592
134246,6;0,004291789
134263,5;0,004288856
134283,3;0,004288856
134296,5;0,004290323
134313;0,004296188
134329,5;0,004297654
134346;0,004310851
134362,6;0,004302053
134379,2;0,004281525
134395,7;0,004277126
134412,3;0,004272727
134428,9;0,00427566
134445,5;0,004290323
134462;0,00429912
134478,9;0,00429912
134495,1;0,004281525
134511,7;0,004291789
134528,3;0,004293255
134544,8;0,004290323
134561,7;0,004294721
134578;0,004277126
134594,6;0,004281525
134611,2;0,004281525
134627,7;0,004274194
134644,3;0,004260997
134660,9;0,004256598
134677,5;0,004262463
134694,4;0,004253666
134711,1;0,004253666
134727,1;0,004249267
134743,6;0,0042522
134760,5;0,004241935
134776,8;0,004241935
134793,8;0,004240469
134810,1;0,004230205
134826,5;0,00422434
134843;0,004221408
134860,1;0,004215543
134876,2;0,004215543
134892,8;0,004215543
134909,3;0,004215543
134925,9;0,004203812
134942,4;0,004203812
134959,1;0,004195014
134976;0,004206745
134992,1;0,004214076
135008,8;0,004230205
135025,3;0,004230205
135041,8;0,004230205
135058,4;0,004233138
135075,1;0,004228739
135092,1;0,00423607
135108,8;0,004243402
135124,7;0,004262463
135141,2;0,004262463
135157,8;0,004253666
135174,4;0,004239003
135191;0,004250733
135207,5;0,004250733
135224,1;0,004256598
135240,6;0,004255132
135257,2;0,004233138
135274;0,004239003
135290,3;0,004256598
135306,9;0,0042522
135324,2;0,00426393
135340;0,004266862
135356,6;0,004266862
135373,5;0,004266862
135389,7;0,004266862
135406,8;0,004259531
135422,9;0,004268329
135439,7;0,004277126
135456,5;0,004278592
135472,6;0,004269795
135489,2;0,004253666
135505,9;0,004202346
135522,3;0,004197947
135539;0,00420088
135555,9;0,004202346
135572;0,004196481
135589,3;0,004206745
135605,1;0,004206745
135621,7;0,004196481
135638,3;0,004196481
135654,9;0,004203812
135671,8;0,004211144
135688;0,004203812
135704,9;0,004221408
135721,1;0,004221408
135737,6;0,004199414
135754,2;0,004197947
135770,8;0,004197947
135787,3;0,004197947
135803,9;0,004206745
135820,5;0,00422434
135837,2;0,004195014
135853,7;0,004208211
135870,2;0,004209677
135887,4;0,004196481
135903,3;0,004202346
135919,9;0,004184751
135936,9;0,004181818
135953;0,004187683
135970;0,004189149
135986,4;0,004199414
136002,7;0,004199414
136019,3;0,004193549
136035,8;0,004171554
136052,4;0,004165689
136069;0,00417302
136085,5;0,004174487
136102,1;0,004181818
136118,7;0,004187683
136135,2;0,004174487
136152;0,004180352
136168,6;0,004175953
136185;0,004189149
136201,5;0,004181818
136218,6;0,004187683
136235,2;0,004181818
136251,2;0,004181818
136267,8;0,004167155
136284,3;0,004178886
136301,4;0,004183284
136317,5;0,004183284
136334;0,004180352
136350,9;0,004156892
136367,5;0,004164223
136385,1;0,004178886
136401,7;0,004164223
136418,3;0,004162757
136434,8;0,004165689
136452;0,004156892
136468;0,004155425
136484,9;0,004155425
136501,1;0,00417302
136517,7;0,004174487
136534,2;0,004170088
136550,8;0,004165689
136567,5;0,004152493
136584;0,004164223
136600,5;0,004177419
136617;0,004175953
136634,1;0,004175953
136650,4;0,004170088
136667,2;0,004183284
136683,5;0,004183284
136700;0,004183284
136716,5;0,004171554
136733,1;0,004189149
136750,2;0,004187683
136766,3;0,00420088
136782,9;0,004205279
136799,3;0,004192082
136815,9;0,004193549
136832,5;0,004189149
136849;0,004189149
136865,6;0,004203812
136882,1;0,004217009
136899,2;0,004219941
136915,3;0,004221408
136931,8;0,004239003
136948,4;0,004241935
136965,2;0,004230205
136981,6;0,004237537
136998,1;0,004253666
137014,7;0,004246335
137031,5;0,004260997
137047,8;0,004274194
137064,4;0,004266862
137081,2;0,004266862
137097,5;0,004259531
137114,1;0,004253666
137130,6;0,004255132
137147,2;0,004256598
137163,8;0,00426393
137180,3;0,00426393
137197;0,00426393
137213,5;0,00426393
137230;0,00426393
137247,1;0,004268329
137263,3;0,004268329
137279,7;0,004268329
137296,4;0,004268329
137313;0,004266862
137329,7;0,004281525
137346;0,004285924
137362,5;0,004293255
137379,2;0,004296188
137395,7;0,004285924
137412,3;0,004293255
137429;0,004285924
137447,7;0,004280059
137462;0,004291789
137478,5;0,004282991
137495,1;0,004307918
137512,5;0,004303519
137528,5;0,004296188
137544,9;0,004297654
137561,4;0,004306452
137577,9;0,004302053
137594,5;0,004293255
137611,3;0,004296188
137627,6;0,00428739
137644,2;0,004277126
137660,8;0,004277126
137677,3;0,004291789
137693,9;0,004282991
137710,5;0,004281525
137727,1;0,004312317
137743,8;0,004296188
137760,1;0,004296188
137776,7;0,00428739
137793,7;0,004302053
137810,1;0,004302053
137827,1;0,004290323
137843;0,004293255
137860,2;0,004302053
137876,1;0,004307918
137892,7;0,004302053
137909,3;0,004302053
137925,8;0,004302053
137942,4;0,004302053
137959;0,004302053
137976,1;0,004302053
137992,1;0,004307918
138009,1;0,004310851
138025,2;0,004310851
138042,2;0,004304986
138058,3;0,004304986
138074,9;0,004313783
138091,5;0,004313783
138108,2;0,004316716
138124,6;0,004307918
138141,8;0,004300586
138157,8;0,004300586
138174,3;0,004300586
138191;0,004315249
138207,5;0,004307918
138224,2;0,004310851
138240,9;0,004307918
138257,2;0,004306452
138273,7;0,004306452
138290,3;0,004300586
138306,9;0,004294721
138323,6;0,004294721
138340;0,004282991
138356,6;0,004306452
138373,3;0,004297654
138389,9;0,004291789
138406,3;0,004288856
138423,4;0,004288856
138442,2;0,004290323
138456,2;0,004284457
138472,5;0,004291789
138489,1;0,004272727
138505,8;0,004288856
138522,3;0,004288856
138538,8;0,00428739
138555,6;0,004288856
138572,3;0,004288856
138588,5;0,004288856
138605,1;0,004291789
138621,6;0,004277126
138638,2;0,004278592
138654,8;0,004269795
138671,4;0,00426393
138687,9;0,004269795
138704,5;0,004266862
138721;0,004268329
138737,7;0,004271261
138754,5;0,004260997
138770,7;0,004258065
138787,3;0,004255132
138803,9;0,004255132
138820,4;0,004255132
138837,5;0,004255132
138853,6;0,004244868
138870,1;0,004227273
138886,7;0,004214076
138903,3;0,004228739
138919,8;0,004219941
138936,4;0,004205279
138953;0,004197947
138969,5;0,004193549
138986,4;0,004193549
139002,9;0,004177419
139019,2;0,004177419
139036,3;0,004171554
139052,8;0,004168622
139068,9;0,004165689
139085,5;0,004153959
139102;0,004151026
139119,1;0,004145161
139135,2;0,004145161
139151,8;0,004146628
139168,3;0,004130499
139185,1;0,004133431
139201,5;0,004133431
139218;0,004118768
139235,1;0,004117302
139251,2;0,004121701
139267,8;0,004114369
139284,3;0,004117302
139300,9;0,004114369
139317,7;0,004109971
139334,5;0,004109971
139350,6;0,004109971
139367,7;0,004121701
139383,7;0,004114369
139400,6;0,004095308
139416,8;0,004087977
139433,4;0,004082112
139450,5;0,004083578
139466,5;0,004087977
139483,1;0,004080645
139499,7;0,004067449
139516,7;0,004067449
139532,8;0,004093842
139549,4;0,004093842
139565,9;0,004089443
139583,1;0,004087977
139599,1;0,004095308
139615,9;0,004085044
139632,3;0,004093842
139649;0,004092375
139665,6;0,004089443
139681,9;0,00408651
139698,9;0,00408651
139715;0,004071848
139731,8;0,004077713
139748,4;0,004095308
139764,7;0,004085044
139781,3;0,004071848
139797,9;0,004077713
139814,4;0,004077713
139831,4;0,004090909
139847,5;0,004090909
139864,1;0,004089443
139880,7;0,00408651
139897,5;0,004095308
139913,8;0,004095308
139930,4;0,004109971
139947,1;0,004120235
139963,5;0,004111437
139980,1;0,004101173
139996,7;0,004105572
140013,2;0,004101173
140030,2;0,004085044
140046,4;0,004089443
140062,9;0,004082112
140079,5;0,004077713
140096,2;0,004089443
140112,6;0,00408651
140129,2;0,00408651
140146;0,004096774
140162,3;0,004108504
140179,4;0,004090909
140195,5;0,004107038
140212;0,004095308
140228,6;0,004102639
140245,1;0,004104106
140261,7;0,004109971
140278,3;0,004109971
140294,9;0,004095308
140311,4;0,00409824
140328;0,004090909
140344,6;0,004095308
140361,3;0,00408651
140378,1;0,004080645
140394,3;0,00408651
140410,8;0,004089443
140428,1;0,004087977
140444,3;0,004087977
140460,9;0,004083578
140477,3;0,004083578
140493,7;0,004082112
140510,5;0,004090909
140527;0,004089443
140543,4;0,004102639
140560,2;0,004085044
140576,5;0,004085044
140593;0,00408651
140609,7;0,004101173
140626,3;0,004123167
140642,8;0,004118768
140659,3;0,004127566
140675,9;0,004127566
140692,5;0,004120235
140709,3;0,004117302
140725,6;0,004114369
140742,2;0,004118768
140759,1;0,004118768
140775,9;0,004129032
140791,9;0,004107038
140808,4;0,004130499
140825,2;0,004136364
140841,5;0,004134898
140858,1;0,004140763
140874,7;0,004142229
140891,3;0,004142229
140907,8;0,004140763
140924,7;0,004143695
140941;0,004148094
140957,5;0,004156892
140974,1;0,004156892
140990,9;0,004151026
141007,2;0,004164223
141023,8;0,004162757
141040,7;0,004158358
141057,3;0,004158358
141073,9;0,004162757
141090,1;0,004187683
141106,6;0,004195014
141123,4;0,004195014
141139,9;0,004186217
141156,4;0,004190616
141172,9;0,004206745
141189,5;0,004208211
141206;0,004208211
141222,6;0,004218475
141239,5;0,004222874
141255,7;0,004228739
141272,4;0,004227273
141288,8;0,004227273
141306,3;0,004233138
141322,3;0,004215543
141338,5;0,004219941
141355,1;0,004225806
141371,9;0,004225806
141388,3;0,004218475
141404,8;0,00422434
141421,9;0,004219941
141438,2;0,004225806
141454,5;0,004221408
141471,1;0,004231672
141487,7;0,004240469
141504,5;0,004240469
141520,8;0,004244868
141537,4;0,004227273
141554,4;0,004228739
141570,5;0,004233138
141587,1;0,004240469
141603,6;0,004244868
141620,3;0,004243402
141636,8;0,004239003
141653,3;0,004258065
141670,1;0,0042522
141686,5;0,004240469
141703,5;0,004239003
141719,6;0,004250733
141736,4;0,004250733
141752,7;0,004250733
141769,3;0,004243402
141785,9;0,004237537
141802,7;0,004225806
141819,1;0,004237537
141835,9;0,004219941
141852,1;0,004205279
141868,7;0,00420088
141885,6;0,004205279
141901,8;0,004203812
141919,2;0,004192082
141935,3;0,004183284
141952,5;0,004180352
141968,1;0,004189149
141984,7;0,004183284
142001,2;0,004183284
142017,9;0,004186217
142034,5;0,004192082
142050,9;0,004190616
142067,5;0,004186217
142084,1;0,004183284
142100,6;0,004184751
142117,2;0,004187683
142133,8;0,004180352
142150,3;0,004187683
142167,1;0,004187683
142183,5;0,004187683
142200;0,004187683
142216,6;0,004190616
142233,2;0,00417302
142249,7;0,004190616
142266,3;0,004186217
142282,9;0,004186217
142299,5;0,004197947
142316;0,004196481
142333,4;0,004192082
142349,1;0,004187683
142365,7;0,004187683
142382,6;0,004208211
142398,9;0,004208211
142415,4;0,00421261
142432;0,004202346
142448,8;0,004197947
142465,1;0,004197947
142482,1;0,004205279
142498,4;0,00420088
142514,8;0,004187683
142531,4;0,004192082
142547,9;0,004205279
142564,8;0,004205279
142587,1;0,00420088
142598,1;0,004196481
142614,2;0,004196481
142630,8;0,00420088
142647,7;0,00420088
142663,9;0,004197947
142680,5;0,004203812
142697,2;0,004203812
142713,6;0,004195014
142730,1;0,004184751
142746,7;0,004196481
142763,3;0,004199414
142779,9;0,004203812
142796,4;0,004215543
142813;0,004215543
142829,9;0,004195014
142846,2;0,004197947
142862,7;0,004199414
142879,3;0,004195014
142895,8;0,004197947
142912,4;0,004197947
142929;0,004196481
142945,5;0,004196481
142962,1;0,004196481
142978,7;0,004202346
142995,5;0,004193549
143011,8;0,004181818
143028,3;0,004181818
143045,6;0,004180352
143061,5;0,004174487
143078;0,004184751
143094,6;0,004195014
143111,3;0,004162757
143127,8;0,004170088
143144,3;0,004152493
143160,9;0,004151026
143177,5;0,004151026
143194;0,004151026
143210,6;0,004145161
143227,3;0,004153959
143243,7;0,004143695
143260,3;0,00413783
143277,9;0,004139296
143293,4;0,004139296
143310;0,004139296
143326,9;0,004148094
143343,6;0,004146628
143359,9;0,004153959
143376,5;0,004156892
143392,8;0,004148094
143409,4;0,004145161
143426,2;0,004156892
143442,7;0,004162757
143459,1;0,004165689
143476;0,004158358
143492,3;0,004158358
143508,8;0,004156892
143525,4;0,004155425
143542,5;0,004156892
143558,5;0,004162757
143575,1;0,00416129
143591,6;0,004164223
143608,2;0,004156892
143624,8;0,004152493
143641,3;0,004152493
143658;0,004156892
143674,5;0,00414956
143691;0,004152493
143707,6;0,00414956
143724,7;0,004152493
143741,2;0,00416129
143757,3;0,004156892
143774,5;0,00417302
143790,5;0,004165689
143807;0,004175953
143823,8;0,004159824
143840,2;0,004162757
143856,7;0,004156892
143873,3;0,004162757
143889,8;0,004167155
143906,4;0,004181818
143923;0,004181818
143939,5;0,004183284
143956,1;0,004181818
143973,4;0,004189149
143989,2;0,004190616
144005,8;0,004205279
144022,4;0,00420088
144039;0,004205279
144055,6;0,004217009
144072;0,004217009
144089,3;0,004211144
144105,2;0,004227273
144122,1;0,004228739
144138,5;0,004234604
144155,3;0,00423607
144171,6;0,00423607
144188;0,004234604
144204,6;0,004219941
144221,2;0,004237537
144237,7;0,004241935
144254,3;0,004239003
144271;0,004228739
144287,4;0,004228739
144304;0,004231672
144320,6;0,004234604
144337,1;0,004234604
144353,8;0,004233138
144371;0,004233138
144386,8;0,004230205
144403,4;0,004239003
144420,3;0,004239003
144436,5;0,004239003
144453,5;0,004234604
144469,7;0,00423607
144486,2;0,004246335
144503;0,004246335
144519,3;0,004258065
144536,3;0,004258065
144552,5;0,00426393
144569,1;0,004246335
144586,3;0,004246335
144602,2;0,004241935
144618,8;0,004253666
144635,5;0,004256598
144652;0,004241935
144668,5;0,004259531
144685;0,004253666
144701,6;0,004249267
144718,2;0,004255132
144734,9;0,004256598
144752,2;0,004243402
144767,9;0,004234604
144784,4;0,004240469
144801;0,00423607
144817,5;0,004243402
144834,1;0,004243402
144850,8;0,0042478
144867,3;0,004249267
144883,8;0,0042478
144900,4;0,004253666
144917;0,004250733
144933,6;0,004243402
144950,2;0,004237537
144966,7;0,004237537
144983,2;0,004237537
145000;0,004237537
145016,5;0,004228739
145033,1;0,004244868
145049,5;0,004244868
145066,1;0,004243402
145082,7;0,004243402
145099,6;0,0042478
145115,8;0,004230205
145132,3;0,004227273
145148,9;0,004256598
145165,5;0,004255132
145182,1;0,004243402
145198,6;0,004249267
145215,2;0,004249267
145231,7;0,004244868
145248,3;0,0042478
145264,9;0,004255132
145281,4;0,004256598
145298;0,0042522
145314,6;0,004243402
145331,1;0,0042478
145348;0,0042478
145364,3;0,004256598
145380,8;0,004244868
145397,4;0,004244868
145414,4;0,00423607
145430,5;0,004237537
145447,1;0,004233138
145463,7;0,004228739
145480,2;0,004237537
145496,8;0,004237537
145513,3;0,00423607
145530,3;0,004239003
145546,5;0,004239003
145563;0,004237537
145579,8;0,004233138
145596,2;0,004233138
145612,8;0,004228739
145629,3;0,004227273
145645,9;0,004225806
145662,7;0,004215543
145679;0,004208211
145695,6;0,00421261
145712,5;0,004209677
145728,7;0,004215543
145745,6;0,004202346
145761,9;0,004196481
145778,4;0,004197947
145795,1;0,004219941
145811,5;0,004209677
145828,5;0,004214076
145844,7;0,004222874
145861,3;0,004227273
145877,9;0,004231672
145894,4;0,004233138
145911;0,004231672
145927,5;0,004234604
145944,1;0,004234604
145960,6;0,004234604
145977,2;0,004231672
145993,8;0,004227273
146010,4;0,00422434
146027,2;0,004217009
146043,5;0,004215543
146060,1;0,00421261
146077;0,004222874
146093,2;0,004215543
146110;0,004208211
146126,3;0,004211144
146142,9;0,00421261
146159,5;0,004208211
146176;0,004209678
146192,7;0,004209678
146210,2;0,004211144
146225,7;0,004208211
146242,6;0,004203812
146258,8;0,004203812
146275,4;0,004214076
146292;0,004206745
146308,8;0,004196481
146325,1;0,004206745
146342;0,004219941
146358,3;0,004231672
146375,4;0,004230205
146391,4;0,004225806
146408;0,00422434
146424,5;0,004227273
146441,1;0,004250733
146457,7;0,004239003
146474,6;0,004219941
146491,1;0,004219941
146507,4;0,004225806
146524,2;0,004219941
146540,5;0,004215543
146557,3;0,004215543
146573,6;0,00421261
146590,3;0,004222874
146606,8;0,004243402
146623,3;0,004234604
146639,9;0,004219941
146656,5;0,004231672
146673;0,004215543
146689,6;0,00421261
146706,2;0,00421261
146723,3;0,004219941
146744,4;0,004211144
146761,8;0,00423607
146777,6;0,004230205
146794,1;0,004246335
146810,7;0,004237537
146827,3;0,004231672
146843,8;0,004234604
146860,6;0,004239003
146877,5;0,004233138
146893,5;0,004233138
146910,4;0,004233138
146926,7;0,004233138
146943,2;0,004222874
146959,8;0,004225806
146976,3;0,004225806
146993;0,004240469
147009,5;0,004243402
147026,1;0,004250733
147042,6;0,004231672
147059,2;0,004241935
147075,8;0,00426393
147092,5;0,004262463
147108,9;0,004262463
147125,5;0,004260997
147142,1;0,004280059
147158,8;0,004258065
147175,2;0,004253666
147192,3;0,004250733
147208,3;0,004262463
147224,9;0,004262463
147241,4;0,0042478
147258;0,004244868
147274,6;0,004246335
147291,2;0,004249267
147307,7;0,004243402
147325,1;0,004260997
147340,8;0,004239003
147358;0,0042522
147374;0,004259531
147390,5;0,004262463
147407,1;0,004262463
147423,7;0,00426393
147440,2;0,004258065
147456,8;0,0042522
147473,4;0,00423607
147489,9;0,00423607
147506,5;0,00423607
147523,1;0,00423607
147539,6;0,004241935
147556,4;0,004243402
147572,8;0,004237537
147589,3;0,004230205
147606,5;0,004222874
147622,5;0,004234604
147639,3;0,00423607
147656;0,004243402
147672,2;0,004260997
147688,7;0,004246335
147705,6;0,004246335
147722,8;0,004239003
147738,6;0,00423607
147755,3;0,004231672
147771,7;0,004243402
147788,4;0,004233138
147804,9;0,004218475
147821,3;0,004225806
147837,8;0,004233138
147854,4;0,00422434
147871;0,004234604
147887,5;0,004233138
147904,2;0,004228739
147921;0,004221408
147937,2;0,004221408
147953,8;0,004231672
147970,6;0,00422434
147986,9;0,004221408
148003,5;0,004221408
148020;0,004233138
148036,8;0,004222874
148053,2;0,00423607
148069,8;0,004231672
148086,4;0,004233138
148102,9;0,004227273
148119,5;0,004227273
148136;0,004225806
148152,8;0,004225806
148169,2;0,004231672
148185,7;0,004218475
148202,5;0,004218475
148218,9;0,004241935
148235,8;0,004234604
148252;0,004237537
148269;0,004239003
148285,1;0,004239003
148301,7;0,004241935
148318,8;0,004225806
148334,8;0,004221408
148351,4;0,00422434
148368,8;0,00422434
148384,5;0,004225806
148401,1;0,004222874
148417,9;0,00422434
148434,2;0,004214076
148451,2;0,004214076
148467,4;0,004211144
148483,9;0,00421261
148500,5;0,004211144
148517,1;0,004217009
148533,6;0,004214076
148550,7;0,004215543
148566,8;0,004225806
148583,5;0,004206745
148599,9;0,00421261
148616,5;0,004203812
148633;0,004211144
148649,6;0,004209677
148666,3;0,004217009
148682,7;0,004202346
148699,3;0,004192082
148716,2;0,00420088
148732,4;0,004205279
148749,4;0,004197947
148765,5;0,00420088
148782,1;0,004181818
148798,7;0,004190616
148815,3;0,004190616
148831,8;0,004190616
148848,4;0,004190616
148865,5;0,004186217
148882;0,004195014
148898,1;0,004205279
148914,7;0,004190616
148931,8;0,004193549
148947,8;0,004209677
148964,5;0,004203812
148981,3;0,004205279
148997,5;0,004192082
149014,1;0,004193549
149030,6;0,004193549
149047,4;0,004168622
149063,8;0,004168622
149080,5;0,004155425
149096,9;0,004156892
149113,5;0,004165689
149130;0,004171554
149146,6;0,004168622
149163,3;0,00417302
149179,7;0,00417302
149196,3;0,004170088
149212,9;0,004158358
149229,5;0,004158358
149246;0,004164223
149262,6;0,004162757
149279,1;0,00416129
149295,7;0,00417302
149312,3;0,004177419
149328,8;0,004159824
149345,4;0,004167155
149362,1;0,004174487
149378,5;0,004164223
149395,1;0,004167155
149411,7;0,004170088
149428,2;0,004170088
149444,9;0,004164223
149461,3;0,004168622
149477,9;0,004168622
149495,4;0,004164223
149511,1;0,004193549
149528;0,004203812
149544,3;0,004202346
149560,8;0,004193549
149577,3;0,004190616
149594,6;0,004202346
149610,5;0,004199414
149627;0,004205279
149643,6;0,004197947
149660,3;0,004203812
149676,7;0,004197947
149693,3;0,004219941
149709,9;0,004211144
149726,7;0,004215543
149743;0,004205279
149759,6;0,004211144
149776,2;0,004203812
149792,7;0,004203812
149809,4;0,004222874
149825,9;0,004199414
149842,4;0,004203812
149859,2;0,004203812
149875,8;0,004205279
149892,1;0,004206745
149908,7;0,004202346
149925,2;0,004205279
149941,8;0,004199414
149958,7;0,004217009
149974,9;0,004225806
149991,5;0,004221408
150008,1;0,004217009
150024,6;0,00421261
150041,2;0,00421261
150057,8;0,004214076
150074,3;0,004215543
150091,8;0,004215543
150107,5;0,00421261
150124;0,00421261
150140,6;0,004217009
150157,2;0,004221408
150173,7;0,004237537
150190,7;0,004237537
150206,9;0,00422434
150223,8;0,004234604
150240,1;0,004234604
150257,1;0,004237537
150273,2;0,004241935
150289,7;0,00422434
150306,3;0,004228739
150322,8;0,004240469
150339,8;0,0042478
150356;0,004250733
150372,5;0,004266862
150389,1;0,004271261
150405,7;0,00426393
150422,2;0,004268329
150438,8;0,004268329
150455,4;0,004272727
150471,9;0,004277126
150488,5;0,004269795
150505;0,004266862
150521,7;0,004265396
150538,5;0,004255132
150554,9;0,004253666
150571,5;0,004250733
150588,1;0,004237537
150604,5;0,00423607
150621;0,004225806
150637,6;0,00423607
150654,2;0,00423607
150671,5;0,004246335
150687,9;0,0042522
150703,9;0,004259531
150720,4;0,004255132
150737,1;0,004255132
150753,6;0,004256598
150770,1;0,0042522
150786,8;0,004240469
150803,3;0,004244868
150819,8;0,004240469
150836,4;0,004246335
150853,4;0,004230205
150869,8;0,004243402
150890;0,004259531
150902,7;0,004256598
150919,2;0,004258065
150935,8;0,004253666
150952,4;0,004246335
150968,9;0,0042522
150985,5;0,004258065
151002,4;0,004250733
151018,9;0,004255132
151035,2;0,004237537
151051,8;0,004249267
151068,3;0,004241935
151084,9;0,004240469
151101,5;0,004239003
151118,3;0,004241935
151134,6;0,004246335
151151,2;0,004246335
151168;0,004259531
151184,3;0,004259531
151200,8;0,004266862
151217,5;0,004269795
151234,1;0,004280059
151250,5;0,00427566
151267,1;0,004266862
151283,7;0,004266862
151300,3;0,004274194
151316,9;0,004265396
151333,4;0,004278592
151350;0,004278592
151366,5;0,004284457
151383,1;0,004284457
151400,1;0,004291789
151416,2;0,004293255
151432,8;0,004296188
151449,4;0,00428739
151466,2;0,00428739
151482,7;0,00428739
151499,1;0,004253666
151515,6;0,004250733
151532,4;0,004253666
151548,8;0,004258065
151565,4;0,004253666
151582,3;0,0042478
151598,5;0,004253666
151615;0,0042522
151631,6;0,004255132
151648,5;0,004243402
151664,8;0,004240469
151681,4;0,004240469
151697,9;0,004215543
151714,4;0,004214076
151731,7;0,004219941
151747,6;0,004219941
151764,1;0,00422434
151780,7;0,004250733
151797,3;0,004259531
151813,8;0,004241935
151830,8;0,004241935
151847;0,004262463
151863,6;0,004250733
151880,4;0,004249267
151896,7;0,004241935
151913,4;0,004241935
151929,8;0,004230205
151946,3;0,004227273
151963;0,00421261
151979,5;0,004219941
151996,1;0,004221408
152012,6;0,004233138
152029,7;0,004233138
152045,8;0,004217009
152062,3;0,00420088
152078,9;0,00420088
152095,5;0,004206745
152112;0,004206745
152128,6;0,004195014
152145,2;0,004189149
152161,7;0,004190616
152178,3;0,004183284
152195,5;0,004187683
152211,5;0,004184751
152228;0,004192082
152244,5;0,004192082
152261,1;0,00416129
152277,9;0,004159824
152294,3;0,004148094
152310,8;0,004136364
152327,5;0,004123167
152344;0,004118768
152360,5;0,004109971
152377,1;0,004115836
152393,8;0,004124634
152410,2;0,004124634
152426,8;0,004115836
152443,6;0,004115836
152459,9;0,004124634
152476,5;0,004131965
152493,1;0,004139296
152510,1;0,004131965
152526,2;0,004130499
152542,8;0,004130499
152559,6;0,004130499
152576,2;0,004127566
152593;0,004130499
152609,5;0,00413783
152626;0,004140763
152642,9;0,004140763
152658,7;0,004158358
152675,8;0,004145161
152692;0,004131965
152708,4;0,00413783
152725,4;0,004129032
152742,2;0,004139296
152758,1;0,004134898
152774,7;0,004133431
152791,3;0,004131965
152807,8;0,004143695
152824,4;0,00413783
152841;0,004140763
152857,8;0,004127566
152874,1;0,0041261
152890,8;0,004124634
152907,2;0,004127566
152924,3;0,004117302
152940,4;0,004117302
152957,1;0,004127566
152973,5;0,004117302
152990,1;0,004121701
153007;0,004120235
153023,5;0,0041261
153039,8;0,004130499
153056,3;0,004133431
153073,5;0,004133431
153089,6;0,00413783
153106;0,00413783
153123,2;0,0041261
153139,2;0,004118768
153155,7;0,004124634
153172,3;0,004123167
153188,9;0,004121701
153205,5;0,004112903
153222,1;0,004118768
153238,6;0,004121701
153255,1;0,004121701
153271,7;0,004120235
153288,3;0,004123167
153305;0,004124634
153321,4;0,004124634
153338;0,004111437
153354,5;0,004102639
153371,7;0,004101173
153387,7;0,004104106
153404,2;0,004096774
153421;0,004099707
153437,4;0,004118768
153454;0,004123167
153470,5;0,004120235
153487,1;0,004124634
153503,6;0,004124634
153520,2;0,004130499
153537;0,004120235
153553,3;0,0041261
153569,9;0,0041261
153586,5;0,004127566
153603,2;0,0041261
153619,6;0,004134898
153636,2;0,004129032
153652,7;0,004129032
153669,3;0,004165689
153685,9;0,00416129
153702,4;0,004174487
153719;0,004177419
153735,5;0,004177419
153752,1;0,004183284
153768,7;0,004164223
153785,3;0,004158358
153801,8;0,004156892
153818,4;0,004148094
153835;0,004146628
153852,2;0,004148094
153868,1;0,00414956
153884,8;0,004153959
153901,2;0,004152493
153917,8;0,004152493
153934,5;0,00414956
153951,2;0,004148094
153967,5;0,00414956
153984;0,004152493
154000,6;0,004155425
154020,2;0,004155425
154033,8;0,004159824
154050,6;0,004159824
154067;0,004170088
154083,5;0,004181818
154100,1;0,004165689
154116,6;0,004158358
154133,2;0,004158358
154149,7;0,004158358
154166,3;0,004148094
154182,9;0,00414956
154199,9;0,004152493
154216;0,004152493
154232,6;0,004148094
154249,4;0,004170088
154265,7;0,004165689
154282,3;0,004164223
154298,8;0,004174487
154315,4;0,004209678
154332,5;0,004209678
154348,5;0,004211144
154365,1;0,004205279
154381,7;0,004214076
154398,2;0,004214076
154414,8;0,00421261
154431,5;0,004219941
154447,9;0,00422434
154464,5;0,004225806
154481,1;0,00423607
154497,6;0,004228739
154514,6;0,004221408
154530,8;0,004234604
154547,3;0,004243402
154563,9;0,004243402
154580,5;0,004243402
154597,2;0,004241935
154613,6;0,004240469
154630,2;0,004228739
154646,7;0,004218475
154663,7;0,004239003
154679,9;0,004227273
154697,1;0,004234604
154713,1;0,004219941
154729,5;0,004249267
154746,4;0,004249267
154762,7;0,004249267
154779,3;0,004249267
154795,8;0,004241935
154812,4;0,004244868
154829;0,004249267
154845,5;0,0042522
154862,2;0,0042522
154878,7;0,004258065
154895,2;0,004268329
154911,8;0,004269795
154928,4;0,004266862
154944,9;0,004265396
154961,5;0,00426393
154978,4;0,004265396
154994,6;0,004262463
155011,2;0,004262463
155027,9;0,004250733
155050,1;0,004258065
155061;0,004244868
155077,7;0,004255132
155094;0,004269795
155111,2;0,004269795
155127,2;0,004262463
155143,7;0,0042522
155160,5;0,004240469
155177;0,0042478
155193,6;0,004246335
155210;0,004246335
155226,6;0,004246335
155243,1;0,004256598
155259,7;0,004266862
155276,4;0,004259531
155293,7;0,004255132
155309,4;0,004259531
155326;0,004259531
155342,5;0,004268329
155359,1;0,004265396
155375,9;0,004265396
155392,3;0,004268329
155408,8;0,004266862
155425,4;0,004262463
155441,9;0,004255132
155458,5;0,004262463
155475;0,004253666
155492,2;0,004258065
155508,2;0,004255132
155525,1;0,004258065
155542;0,0042522
155557,9;0,004262463
155574,5;0,004280059
155591;0,004274194
155607,6;0,004260997
155624,5;0,004246335
155641,1;0,004255132
155657,3;0,004255132
155673,9;0,004244868
155691,3;0,004241935
155707;0,004241935
155723,6;0,004253666
155740,1;0,004266862
155756,7;0,004256598
155773,3;0,004256598
155789,9;0,004269795
155806,4;0,004272727
155823;0,004274194
155839,5;0,004278592
155856,3;0,004284457
155873,5;0,004278592
155889,9;0,004285924
155905,8;0,004290323
155923,2;0,004290323
155938,9;0,004312317
155955,5;0,004312317
155972,1;0,004304986
155988,6;0,004300586
156005,2;0,004313783
156022,1;0,004324047
156038,3;0,004318182
156055,3;0,004321115
156071,5;0,004331378
156088;0,004319648
156106,8;0,004331378
156123,3;0,00433871
156139,9;0,004337243
156156,5;0,004341642
156173,1;0,004343109
156189,6;0,004359237
156206,2;0,004353372
156223,2;0,004354839
156239,3;0,004354839
156255,9;0,004348974
156272,5;0,004343109
156289;0,004343109
156305,8;0,00432698
156322,7;0,00432698
156338,7;0,004316716
156356,1;0,004332845
156372;0,004316716
156388,6;0,004313783
156405,1;0,004313783
156422,2;0,004312317
156438,1;0,004306452
156454,7;0,004306452
156471,2;0,004302053
156487,8;0,004310851
156504,5;0,004303519
156520,9;0,004303519
156537,5;0,004302053
156554,2;0,004313783
156570,6;0,004312317
156587,2;0,004304986
156604,1;0,004297654
156620,3;0,004284457
156636,9;0,004288856
156653,5;0,004297654
156670;0,004280059
156686,8;0,004280059
156703,5;0,004285924
156720,2;0,004284457
156736,3;0,004297654
156752,9;0,004304986
156769,4;0,004309384
156786;0,004294721
156802,6;0,004302053
156819,2;0,004300586
156835,7;0,004293255
156852,3;0,004293255
156868,8;0,004296188
156885,7;0,004288856
156902;0,004282991
156918,5;0,004282991
156935,1;0,004280059
156951,7;0,004280059
156968,3;0,004274194
156984,9;0,004277126
157001,4;0,004282991
157018,5;0,004284457
157034,6;0,004291789
157051,1;0,004288856
157067,8;0,004272727
157084,2;0,004280059
157100,8;0,004285924
157117,3;0,004293255
157134,4;0,004296188
157150,5;0,004296188
157167;0,004293255
157189,4;0,004296188
157201,4;0,004293255
157218;0,00427566
157235;0,004291789
157251,1;0,00428739
157267,6;0,00428739
157284,2;0,004304986
157300,8;0,004302053
157317,4;0,004291789
157333,9;0,00429912
157350,5;0,00429912
157367;0,004303519
157383,6;0,004307918
157400,4;0,00429912
157416,8;0,00429912
157433,3;0,004309384
157450,2;0,004307918
157466,5;0,004297654
157483,4;0,004304986
157499,6;0,004297654
157516,1;0,004296188
157533,2;0,004310851
157549,3;0,00429912
157565,8;0,004290323
157582,7;0,004284457
157599;0,004310851
157615,6;0,004310851
157632,1;0,004321115
157648,7;0,004321115
157665,3;0,004309384
157681,8;0,004306452
157698,4;0,004303519
157715,1;0,004304986
157732;0,004291789
157748,2;0,004291789
157764,7;0,004291789
157781,2;0,004291789
157797,8;0,00429912
157814,3;0,00428739
157831;0,004293255
157847,5;0,00429912
157864;0,004291789
157880,6;0,004290323
157897,2;0,004285924
157913,7;0,004285924
157930,7;0,004294721
157947,5;0,004288856
157963,5;0,004288856
157980;0,004290323
157996,6;0,00427566
158013,2;0,004262463
158029,7;0,004266862
158046,3;0,004266862
158063,1;0,004243402
158079,4;0,004249267
158096;0,004249267
158112,7;0,004250733
158129,4;0,004250733
158146,5;0,004255132
158162,3;0,004246335
158178,8;0,004244868
158195,4;0,004239003
158217,8;0,004237537
158228,7;0,004230205
158245,1;0,004243402
158262;0,004240469
158278,4;0,00423607
158295,5;0,004234604
158311,4;0,004240469
158327,9;0,004241935
158344,6;0,004239003
158361,1;0,004231672
158377,6;0,0042478
158394,6;0,0042478
158410,9;0,004241935
158427,3;0,004241935
158444,5;0,004246335
158460,5;0,004243402
158477,2;0,004241935
158493,6;0,004250733
158510,1;0,004231672
158526,7;0,004233138
158543,3;0,004240469
158559,9;0,004246335
158576,5;0,004262463
158593;0,004258065
158610;0,00427566
158626,4;0,004272727
158643,2;0,004274194
158659,2;0,004277126
158676,1;0,00427566
158692,4;0,004281525
158709;0,00428739
158725,5;0,00428739
158742,2;0,004265396
158758,8;0,004260997
158775,2;0,004266862
158792;0,004269795
158808,3;0,004265396
158824,9;0,004266862
158841,5;0,004262463
158858;0,004272727
158875;0,004256598
158891,2;0,004255132
158908,7;0,004255132
158924,8;0,004265396
158941;0,00426393
158957,4;0,00426393
158974,2;0,004274194
158990,6;0,004282991
159007,1;0,004278592
159023,7;0,004272727
159040,3;0,004272727
159057;0,004268329
159073,4;0,004268329
159090,1;0,00427566
159106,9;0,004274194
159123,3;0,004266862
159139,7;0,004269795
159156,3;0,004272727
159173,4;0,004281525
159189,5;0,004281525
159206;0,004291789
159222,5;0,004293255
159239,1;0,004278592
159255,6;0,004278592
159272,9;0,004271261
159288,8;0,004271261
159305,3;0,004253666
159322,6;0,00427566
159338,5;0,004259531
159355;0,00426393
159371,6;0,004258065
159388,3;0,004278592
159404,7;0,004281525
159421,8;0,00427566
159438,7;0,0042522
159454,5;0,004272727
159471;0,004281525
159487,6;0,004281525
159504,5;0,004269795
159520,7;0,004269795
159537,4;0,004255132
159554,2;0,00427566
159570,4;0,00427566
159587;0,00426393
159603,8;0,004269795
159620,1;0,004269795
159636,7;0,004266862
159653,3;0,004262463
159669,8;0,004262463
159686,4;0,004262463
159703,4;0,004271261
159719,5;0,004271261
159736,1;0,004278592
159752,6;0,004265396
159769,2;0,004278592
159786,4;0,00426393
159802,5;0,004265396
159819,2;0,0042478
159835,8;0,0042478
159852,3;0,004243402
159868,6;0,0042478
159885,2;0,004228739
159901,9;0,004237537
159918,3;0,004237537
159935;0,004237537
159951,5;0,004237537
159968;0,004218475
159984,9;0,004225806
160001,1;0,004244868
160017,7;0,004240469
160034,3;0,004271261
160051,5;0,004271261
160067,4;0,004266862
160084;0,004260997
160101,5;0,004269795
160117,2;0,004269795
160133,7;0,004269795
160150,3;0,004265396
160166,8;0,00426393
160183,4;0,004265396
160200;0,004285924
160216,7;0,00428739
160233,1;0,004284457
160249,7;0,004281525
160266,2;0,004293255
160282,8;0,004294721
160299,3;0,004291789
160315,9;0,004302053
160332,5;0,004302053
160349,7;0,004302053
160365,9;0,004297654
160382,5;0,004302053
160398,8;0,004290323
160415,3;0,004281525
160431,9;0,004284457
160449;0,004284457
160465;0,004285924
160482;0,004280059
160498,2;0,004274194
160515,5;0,004285924
160531,7;0,004285924
160547,8;0,004282991
160564,4;0,00426393
160581;0,004260997
160598;0,004255132
160614,3;0,004271261
160631,1;0,004278592
160647,5;0,004290323
160663,9;0,004290323
160680,4;0,004290323
160696,9;0,004290323
160713,5;0,004303519
160730,1;0,004303519
160747;0,004304986
160763,2;0,004306452
160780,1;0,004300586
160796,3;0,004309384
160813,3;0,004310851
160829,5;0,004309384
160846,1;0,004315249
160862,6;0,004321115
160879,2;0,004318182
160895,8;0,004318182
160912,5;0,004307918
160928,9;0,004307918
160945,8;0,004310851
160962;0,004310851
160978,6;0,004310851
160995,2;0,004310851
161011,7;0,004315249
161028,6;0,004315249
161044,9;0,004319648
161061,4;0,004324047
161078;0,004332845
161095,3;0,004322581
161111,1;0,004335777
161128,5;0,004335777
161144,2;0,004341642
161160,8;0,004340176
161177,4;0,004337243
161194;0,004334311
161210,5;0,004334311
161227,1;0,004310851
161244,1;0,004315249
161260,6;0,004331378
161276,9;0,004318182
161293,5;0,004319648
161309,9;0,004303519
161327,3;0,004303519
161343,1;0,004302053
161359,6;0,004313783
161376,2;0,004294721
161392,9;0,004296188
161409,3;0,004296188
161426;0,004296188
161442,5;0,004306452
161459;0,004294721
161475,6;0,004285924
161492,8;0,004285924
161508,7;0,004318182
161525,3;0,004313783
161541,8;0,004300586
161558,5;0,004297654
161575,1;0,004291789
161591,7;0,004291789
161608,1;0,004291789
161624,7;0,004291789
161641,3;0,004290323
161657,8;0,004312317
161674,4;0,004306452
161691;0,004303519
161707,5;0,00429912
161724,1;0,004306452
161740,8;0,004315249
161757,2;0,004310851
161773,8;0,004318182
161790,9;0,004319648
161806,9;0,004337243
161823,5;0,004337243
161840,5;0,00433871
161856,6;0,00435044
161873,5;0,004346041
161889,7;0,004344575
161906,3;0,004363636
161922,9;0,004366569
161939,8;0,004379766
161956;0,0043739
161972,6;0,004375366
161989,2;0,004376833
162005,7;0,0043739
162022,5;0,004375366
162038,8;0,004356305
162055,4;0,004385631
162072;0,004369501
162088,5;0,004372434
162105,1;0,004375366
162121,7;0,004376833
162138,6;0,004365103
162155,1;0,004381231
162171,4;0,004381231
162188,3;0,004363636
162204,7;0,004363636
162221,2;0,004363636
162237,7;0,004365103
162254,2;0,004348974
162270,9;0,004348974
162287,9;0,004346041
162303,9;0,004344575
162320,5;0,004348974
162337;0,004347507
162353,6;0,004334311
162370,2;0,004354839
162387,1;0,00435044
162403,3;0,004366569
162420;0,004357771
162436,6;0,004363636
162453;0,004354839
162469,6;0,004354839
162486,5;0,004353372
162502,8;0,004353372
162519,5;0,004360704
162535,8;0,004359237
162552,4;0,004356305
162569;0,004368035
162585,5;0,004375366
162602,1;0,004378299
162618,7;0,004369501
162635,3;0,00435044
162651,8;0,00435044
162668,4;0,004340176
162685;0,004341642
162701,5;0,004341642
162718,1;0,00432698
162734,9;0,004325513
162751,8;0,004322581
162767,8;0,004321115
162784,3;0,004321115
162801,6;0,004337243
162817,9;0,004356305
162834,5;0,004356305
162850,6;0,004353372
162867,2;0,00436217
162883,8;0,004356305
162900,3;0,004363636
162917,4;0,004363636
162933,4;0,004372434
162950;0,004375366
162966,6;0,004375366
162983,2;0,004376833
162999,7;0,004378299
163016,4;0,004370968
163032,9;0,004382698
163050,4;0,004372434
163066;0,004391496
163082,5;0,004400293
163099,1;0,004400293
163115,7;0,004407625
163132,3;0,004394428
163148,8;0,004404692
163165,4;0,004391496
163182,1;0,00440176
163198,5;0,00440176
163215,1;0,004397361
163232;0,004406158
163248,4;0,004400293
163264,8;0,004388563
163281,3;0,004397361
163297,9;0,00440176
163315,3;0,004403226
163331,1;0,004395894
163347,8;0,004403226
163364,4;0,004410557
163381,4;0,004404692
163397,3;0,004412023
163413,9;0,00441349
163430,5;0,004403226
163447;0,004400293
163463,9;0,00441349
163480,1;0,004409091
163497,5;0,004395894
163513,3;0,004390029
163530,2;0,004384164
163546,4;0,004391496
163563,2;0,004388563
163579,6;0,004394428
163596,6;0,004404692
163612,7;0,004407625
163629,3;0,004407625
163646,1;0,004406158
163662,5;0,004385631
163679;0,004387097
163695,5;0,004392962
163712,8;0,004390029
163728,7;0,004391496
163745,5;0,004391496
163761,8;0,004384164
163778,3;0,004385631
163794,9;0,004382698
163811,7;0,004390029
163828;0,004375366
163844,6;0,004381231
163861,2;0,004372434
163878,4;0,004372434
163894,3;0,004366569
163910,9;0,004384164
163927,6;0,004384164
163944;0,004369501
163960,6;0,004353372
163977,5;0,004363636
163993,7;0,004347507
164010,3;0,00435044
164026,8;0,004346041
164043,5;0,004343109
164060;0,00433871
164076,8;0,004346041
164093,1;0,004346041
164110;0,004359237
164126,4;0,00436217
164142,8;0,004337243
164159,4;0,004340176
164176,4;0,004332845
164193,2;0,004332845
164209,4;0,004332845
164225,6;0,004335777
164242,2;0,004346041
164258,8;0,004340176
164275,3;0,004346041
164292,7;0,004359237
164308,6;0,004366569
164325;0,004365103
164341,6;0,0043739
164358,2;0,004370968
164375;0,00436217
164393,4;0,004368035
164408;0,004368035
164424,5;0,004366569
164441,2;0,004366569
164457,6;0,004381231
164474,2;0,0043739
164490,7;0,004369501
164507,5;0,00436217
164523,9;0,004366569
164540,4;0,004366569
164557,1;0,004366569
164573,5;0,004366569
164590,1;0,004368035
164606,7;0,004369501
164623,3;0,004359237
164639,8;0,004369501
164656,4;0,004370968
164672,9;0,004382698
164689,5;0,004392962
164706,1;0,004392962
164722,6;0,004392962
164739,4;0,004397361
164755,8;0,004387097
164773;0,004379766
164788,9;0,004370968
164805,5;0,004370968
164822,1;0,004370968
164838,8;0,004370968
164855,2;0,004369501
164872;0,004351906
164888,3;0,004347507
164905,3;0,004329912
164921,5;0,004331378
164938;0,004331378
164954,6;0,004335777
164971,1;0,004325513
164987,7;0,004316716
165004,3;0,004321115
165021,4;0,004309384
165037,4;0,004315249
165054;0,004309384
165070,8;0,004316716
165087,3;0,004303519
165104;0,004302053
165120,3;0,004307918
165137,5;0,004306452
165153,6;0,004306452
165170;0,004306452
165186,5;0,004300586
165203,6;0,004297654
165219,7;0,004291789
165236,2;0,004291789
165252,8;0,004296188
165269,5;0,004290323
165285,9;0,004290323
165302,5;0,004315249
165319,1;0,00432698
165336,6;0,004321115
165352,6;0,004325513
165368,8;0,004325513
165385,6;0,004319648
165401,9;0,004307918
165418,5;0,004303519
165435;0,004316716
165451,6;0,004316716
165470,3;0,004332845
165486,9;0,004328446
165503,5;0,004340176
165520;0,004372434
165536,6;0,004359237
165553,3;0,004375366
165569,8;0,004384164
165586,3;0,004384164
165602,9;0,004382698
165619,4;0,004376833
165636,2;0,004388563
165652,7;0,004384164
165669,5;0,004384164
165686,1;0,004381231
165702,3;0,004376833
165718,8;0,00436217
165735,9;0,004365103
165752;0,004363636
165768,5;0,004365103
165785,1;0,004340176
165801,9;0,004334311
165818,3;0,00432698
165834,8;0,004324047
165852,3;0,004324047
165868;0,004325513
165885,3;0,004316716
165901,1;0,004324047
165917,6;0,004315249
165934,2;0,004307918
165950,8;0,004307918
165967,3;0,004319648
165984,2;0,004315249
166000,5;0,004312317
166017;0,004309384
166033,6;0,004297654
166050,2;0,004309384
166066,7;0,004303519
166083,3;0,004306452
166100,7;0,004294721
166116,4;0,00429912
166133;0,004297654
166149,6;0,004277126
166166,1;0,004269795
166182,7;0,004262463
166199,3;0,004266862
166215,8;0,004265396
166232,4;0,004265396
166249,3;0,004260997
166265,5;0,004250733
166282,2;0,004260997
166299,4;0,004259531
166315,2;0,004259531
166332,1;0,004249267
166348,4;0,004250733
166364,9;0,004253666
166381,9;0,004253666
166398,4;0,004258065
166414,6;0,004246335
166431,3;0,004243402
166447,8;0,004241935
166464,3;0,004241935
166481;0,004240469
166500,9;0,004234604
166517,5;0,004219941
166534,3;0,004215543
166550,6;0,004215543
166567,8;0,004215543
166583,7;0,004214076
166600,5;0,004214076
166616,9;0,00421261
166633,4;0,004219941
166650,5;0,004217009
166666,6;0,00421261
166683,1;0,004197947
166699,9;0,004190616
166716,3;0,004197947
166732,9;0,004197947
166749,4;0,004197947
166766;0,004181818
166782,8;0,004195014
166799,1;0,004193549
166816,1;0,004203812
166832,6;0,004208211
166848,8;0,004202346
166865,4;0,004202346
166881,9;0,004190616
166898,5;0,00420088
166915;0,004184751
166931,6;0,004193549
166948,8;0,004192082
166964,8;0,004184751
166981,3;0,004192082
166997,9;0,004195014
167014,5;0,004177419
167031;0,004186217
167047,7;0,004192082
167064,3;0,004177419
167081;0,004174487
167097,6;0,004174487
167114,2;0,004183284
167130,4;0,004183284
167147,5;0,004193549
167163,6;0,004199414
167180,1;0,004196481
167196,7;0,004195014
167213,6;0,004195014
167229,9;0,004197947
167246,4;0,004196481
167263;0,004171554
167279,5;0,004180352
167296,2;0,004167155
167313;0,004170088
167329,7;0,004159824
167345,8;0,004174487
167362,4;0,004170088
167378,9;0,004170088
167395,6;0,004170088
167412,1;0,004187683
167429,1;0,004208211
167445,2;0,004211144
167461,8;0,004177419
167479;0,004170088
167494,9;0,004152493
167511,5;0,004140763
167531,5;0,004155425
167548,2;0,004139296
167564,7;0,004139296
167581,3;0,004127566
167597,8;0,004142229
167615,3;0,004143695
167631,3;0,004142229
167647,9;0,004158358
167664,1;0,004152493
167680,8;0,004156892
167697,2;0,004162757
167713,8;0,004177419
167730,3;0,004181818
167746,9;0,004190616
167763,5;0,004195014
167780;0,004205279
167797,1;0,004214076
167813,3;0,004214076
167829,8;0,00421261
167846,3;0,004214076
167862,9;0,004218475
167879,4;0,004218475
167896;0,004217009
167912,5;0,004217009
167929,1;0,004217009
167945,8;0,004217009
167962,3;0,004218475
167978,8;0,00421261
167995,4;0,00421261
168012;0,00421261
168028,6;0,00421261
168045,4;0,004203812
168062,4;0,004208211
168078,2;0,004209678
168094,9;0,004231672
168111,4;0,004237537
168127,9;0,004237537
168144,5;0,004230205
168161,1;0,004233138
168177,6;0,00422434
168194,4;0,004237537
168210,8;0,004240469
168227,9;0,004234604
168243,9;0,004234604
168260,5;0,004228739
168277;0,00423607
168293,6;0,004241935
168310,2;0,004231672
168327,3;0,004225806
168343,3;0,004239003
168360,5;0,004231672
168376,5;0,004231672
168393,4;0,004227273
168409,9;0,004222874
168426,2;0,004230205
168442,8;0,004246335
168459,4;0,004244868
168475,8;0,004222874
168492,4;0,004217009
168509;0,004211144
168525,6;0,004214076
168542,1;0,004214076
168558,7;0,00422434
168575,4;0,004225806
168599,8;0,004227273
168609,2;0,004218475
168625,8;0,004218475
168642,4;0,004218475
168659,3;0,004218475
168675,5;0,004218475
168692,2;0,004218475
168708,6;0,004215543
168725,4;0,004219941
168741,8;0,004227273
168758,3;0,00423607
168774,9;0,004228739
168791,7;0,004219941
168808;0,004237537
168825,1;0,00423607
168841,2;0,00423607
168857,7;0,004234604
168874,6;0,004222874
168890,9;0,004239003
168907,4;0,004227273
168924,3;0,004217009
168940,9;0,004208211
168957,1;0,00421261
168973,7;0,004222874
168990,3;0,0042522
169007,2;0,00426393
169023,4;0,0042478
169040,5;0,004262463
169056,5;0,004259531
169073,1;0,004259531
169090;0,004225806
169106,4;0,004233138
169122,8;0,004215543
169139,4;0,004230205
169155,9;0,004230205
169173;0,004234604
169189,1;0,004221408
169205,6;0,004221408
169222,2;0,004221408
169238,8;0,004219941
169255,3;0,004215543
169272,2;0,004225806
169288,5;0,004233138
169305;0,004233138
169321,6;0,004230205
169338,2;0,004231672
169354,7;0,004231672
169371,4;0,004221408
169388,2;0,004222874
169404,4;0,004227273
169421,1;0,004233138
169437,9;0,004215543
169454,8;0,004214076
169470,7;0,004221408
169487,3;0,004214076
169504;0,00422434
169520,4;0,004228739
169537;0,004222874
169553,8;0,004222874
169575;0,004221408
169586,7;0,004222874
169603,2;0,004227273
169620,1;0,004227273
169636,4;0,004228739
169652,9;0,004217009
169669,5;0,004206745
169686,1;0,004214076
169702,7;0,004225806
169719,2;0,004228739
169735,8;0,00422434
169752,3;0,004217009
169769,3;0,004214076
169785,5;0,004233138
169802,8;0,004230205
169818,6;0,004240469
169835,2;0,004239003
169852;0,004239003
169868,3;0,004234604
169884,9;0,004234604
169901,4;0,004250733
169918,1;0,004244868
169934,8;0,004260997
169951,1;0,004260997
169967,7;0,004260997
169984,5;0,004258065
170000,8;0,00426393
170017,4;0,004259531
170034;0,0042478
170050,6;0,004230205
170067,4;0,004230205
170083,7;0,004231672
170100,2;0,004243402
170116,8;0,004241935
170133,6;0,0042478
170149,9;0,004249267
170167;0,004243402
170183,7;0,004243402
170199,6;0,004244868
170216,4;0,004241935
170233,3;0,004266862
170249,3;0,004271261
170265,9;0,004262463
170282,5;0,004256598
170299;0,004256598
170316,3;0,004256598
170332,2;0,004256598
170348,7;0,004260997
170365,3;0,004259531
170381,9;0,004259531
170398,6;0,00427566
170415,1;0,004280059
170431,9;0,00427566
170448,3;0,00427566
170465,3;0,004280059
170481,8;0,004280059
170498,2;0,00427566
170514,4;0,004271261
170531,7;0,004272727
170547,5;0,004291789
170564,1;0,004291789
170580,7;0,004291789
170597,2;0,004303519
170613,8;0,004288856
170630,4;0,00428739
170647;0,004294721
170663,5;0,004300586
170680;0,004303519
170696,6;0,004293255
170713,2;0,004297654
170729,8;0,004303519
170746,6;0,004294721
170763,2;0,004302053
170779,5;0,004302053
170796;0,00429912
170812,8;0,004291789
170829,2;0,004291789
170845,8;0,004290323
170862,3;0,004291789
170879,5;0,004280059
170895,4;0,004284457
170912,3;0,004256598
170928,8;0,004256598
170945,1;0,004271261
170961,7;0,004268329
170978,3;0,004268329
170994,8;0,004265396
171011,4;0,004288856
171028,9;0,004284457
171044,5;0,004293255
171061,1;0,004293255
171077,7;0,004296188
171094,2;0,004296188
171110,8;0,004294721
171127,4;0,00428739
171143,9;0,00428739
171160,8;0,00429912
171177,1;0,004272727
171193,7;0,004272727
171210,2;0,004272727
171226,9;0,004272727
171243,4;0,00427566
171260,2;0,004271261
171276,8;0,004303519
171293;0,004303519
171309,6;0,004296188
171326,2;0,004290323
171342,7;0,004302053
171359,3;0,004300586
171375,9;0,004288856
171392,4;0,004288856
171409;0,004291789
171425,5;0,004291789
171442,4;0,004290323
171458,7;0,004296188
171475,3;0,004297654
171491,8;0,004288856
171508,4;0,004293255
171525;0,004291789
171541,6;0,00429912
171558,1;0,00429912
171574,7;0,004282991
171591,2;0,004288856
171608,3;0,004274194
171624,5;0,00426393
171641,1;0,00426393
171657,5;0,004278592
171674,1;0,004269795
171691,1;0,004274194
171707,2;0,004281525
171723,8;0,004256598
171740,3;0,004259531
171756,9;0,004259531
171773,5;0,004256598
171790,1;0,004250733
171806,6;0,004218475
171823,2;0,004219941
171839,7;0,004219941
171856,6;0,004219941
171873,3;0,00422434
171889,7;0,004218475
171906;0,004228739
171922,8;0,004227273
171939,1;0,004219941
171956,2;0,004222874
171972,3;0,004218475
171988,8;0,004218475
172005,4;0,004218475
172022,1;0,004222874
172038,7;0,004222874
172055,3;0,004233138
172071,8;0,004239003
172088,5;0,004227273
172104,8;0,004246335
172121,4;0,004246335
172138,2;0,004246335
172154,5;0,004255132
172171;0,004253666
172187,6;0,004253666
172204,5;0,004255132
172221,2;0,004258065
172237,3;0,004255132
172253,9;0,004255132
172270,5;0,004262463
172287;0,004259531
172303,6;0,004258065
172320,2;0,0042478
172336,7;0,004250733
172354;0,004250733
172369,9;0,004253666
172386,4;0,00426393
172403;0,004277126
172419,6;0,004268329
172436,1;0,004266862
172452,7;0,004269795
172469,3;0,004269795
172485,8;0,004269795
172502,6;0,004269795
172519;0,004269795
172535,7;0,004284457
172552,3;0,004288856
172568,7;0,004284457
172585,2;0,004285924
172601,9;0,004294721
172618,4;0,004288856
172634,9;0,004290323
172651,5;0,004290323
172668,1;0,004271261
172684,7;0,004262463
172701,3;0,004266862
172717,9;0,00426393
172735;0,004271261
172751;0,004265396
172767,5;0,004271261
172784,1;0,004278592
172800,8;0,004280059
172817,3;0,004284457
172833,8;0,004288856
172850,4;0,004290323
172867;0,00429912
172883,6;0,004290323
172900,1;0,004285924
172916,9;0,004297654
172933,2;0,004297654
172949,8;0,00427566
172966,4;0,004269795
172982,9;0,004269795
172999,5;0,00426393
173016,1;0,004268329
173032,6;0,004268329
173049,7;0,00427566
173066;0,004269795
173082,8;0,004272727
173098,9;0,004280059
173115,5;0,004280059
173132,3;0,004291789
173148,6;0,004291789
173165,2;0,004288856
173181,8;0,004272727
173198,3;0,004288856
173215;0,004285924
173231,7;0,004285924
173248,3;0,004282991
173265,1;0,004285924
173281,8;0,004280059
173297,7;0,004269795
173314,4;0,004274194
173330,8;0,004280059
173347,4;0,004272727
173364;0,004262463
173380,5;0,00426393
173397,1;0,004259531
173413,7;0,004259531
173430,3;0,004259531
173447,1;0,004278592
173463,4;0,00427566
173480;0,004269795
173496,5;0,004278592
173513,1;0,004260997
173529,6;0,004266862
173546,2;0,004265396
173562,8;0,004260997
173579,6;0,004260997
173595,9;0,004256598
173612,5;0,004266862
173629;0,004268329
173646;0,004262463
173662,3;0,00426393
173678,7;0,004265396
173695,4;0,004265396
173717,8;0,004262463
173728,6;0,004250733
173745;0,0042522
173762,3;0,004262463
173778,1;0,004262463
173794,7;0,004260997
173811,3;0,004265396
173827,9;0,004277126
173844,4;0,004272727
173861;0,004284457
173877,6;0,004282991
173894,1;0,004274194
173910,7;0,004274194
173927,2;0,004269795
173944,5;0,004269795
173960,4;0,004265396
173976,9;0,004278592
173993,5;0,004271261
174010,2;0,004277126
174026,9;0,004272727
174043,2;0,004269795
174059,8;0,004268329
174076,3;0,004284457
174092,9;0,004285924
174109,5;0,004285924
174126;0,004274194
174142,6;0,004271261
174159,2;0,004272727
174175,7;0,004259531
174192,3;0,00426393
174208,8;0,00426393
174226,2;0,004265396
174242,5;0,004268329
174258,6;0,004255132
174275,1;0,0042522
174291,9;0,004249267
174308,3;0,004259531
174325,6;0,004255132
174343;0,004249267
174359,6;0,004249267
174376,2;0,004249267
174392,7;0,004243402
174409,3;0,004243402
174425,9;0,004243402
174442,4;0,004227273
174459,2;0,004239003
174475,6;0,004231672
174492,4;0,004239003
174508,7;0,004233138
174525,3;0,004233138
174541,9;0,004237537
174558,4;0,004239003
174575;0,004227273
174591,5;0,004221408
174608,1;0,004222874
174624,7;0,00422434
174641,2;0,00422434
174657,8;0,004214076
174674,4;0,004209678
174690,9;0,004228739
174707,5;0,004228739
174724,5;0,004217009
174740,8;0,004215543
174757,4;0,004222874
174773,8;0,004219941
174790,3;0,004218475
174807,2;0,004215543
174823,5;0,004218475
174840,2;0,004218475
174856,6;0,004214076
174873,2;0,004215543
174890,3;0,004215543
174906,7;0,004215543
174922,9;0,004217009
174939,4;0,004215543
174956;0,004231672
174972,6;0,004231672
174989,9;0,004239003
175005,7;0,004227273
175022,3;0,00422434
175038,8;0,00422434
175055,5;0,004221408
175072,4;0,004221408
175088,5;0,004206745
175105,1;0,004205279
175121,7;0,004203812
175138,3;0,00422434
175154,8;0,004221408
175171,8;0,004239003
175187,9;0,004240469
175204,5;0,004258065
175221,2;0,004240469
175237,7;0,004230205
175254,2;0,004231672
175270,9;0,004231672
175287,3;0,004237537
175303,9;0,004239003
175320,5;0,004244868
175337;0,004241935
175354;0,004234604
175370,8;0,004258065
175386,7;0,004256598
175403,3;0,0042522
175420,3;0,004258065
175436,5;0,004250733
175453;0,004246335
175469,6;0,0042522
175486,1;0,004249267
175503;0,004249267
175519,3;0,004239003
175535,9;0,004233138
175552,4;0,004246335
175569;0,0042522
175585,5;0,004244868
175602,1;0,004241935
175618,7;0,004246335
175635,3;0,004256598
175651,8;0,0042478
175668,4;0,004253666
175684,9;0,004253666
175702;0,004253666
175718,1;0,004244868
175735;0,004258065
175751,2;0,00427566
175767,8;0,00426393
175784,3;0,0042522
175801;0,004253666
175817,7;0,0042522
175834;0,004260997
175850,6;0,004253666
175867,2;0,004255132
175884,2;0,004255132
175900,5;0,004256598
175916,9;0,0042522
175933,7;0,004255132
175950,1;0,0042478
175966,8;0,004240469
175983,2;0,004233138
175999,7;0,004231672
176016,4;0,004221408
176032,9;0,004243402
176049,4;0,004237537
176066,6;0,00423607
176082,5;0,004225806
176099,1;0,004202346
176115,7;0,004218475
176132,3;0,004205279
176148,8;0,004208211
176165,5;0,004225806
176182,4;0,004233138
176199,1;0,004225806
176215,1;0,004222874
176231,6;0,0042478
176248,2;0,004240469
176264,8;0,004244868
176281,3;0,004240469
176297,9;0,004272727
176314,5;0,004272727
176331;0,004262463
176348;0,0042522
176364,2;0,004250733
176380,7;0,004260997
176397,3;0,004269795
176413,9;0,004274194
176430,7;0,004277126
176447;0,004271261
176463,6;0,004271261
176480,3;0,004290323
176496,8;0,004271261
176513,3;0,004278592
176529,8;0,004277126
176546,4;0,004282991
176563;0,004288856
176579,5;0,004306452
176596,1;0,004309384
176612,7;0,004296188
176629,2;0,004294721
176645,8;0,004307918
176662,4;0,004304986
176679,5;0,004303519
176695,5;0,004303519
176712,1;0,004306452
176729,3;0,004297654
176745,2;0,004291789
176761,8;0,004282991
176778,3;0,004288856
176795;0,004290323
176811,5;0,00429912
176828;0,004290323
176845,1;0,00427566
176861,6;0,004291789
176878,2;0,004291789
176894,3;0,004297654
176910,9;0,004302053
176927,4;0,004296188
176944,3;0,004309384
176960,6;0,00429912
176977,1;0,00429912
176993,7;0,00429912
177010,3;0,004294721
177026,8;0,004294721
177043,9;0,00429912
177060,5;0,004304986
177076,5;0,004316716
177093,1;0,004316716
177109,7;0,004321115
177126,5;0,00432698
177142,8;0,004324047
177159,4;0,004313783
177176,1;0,004302053
177192,5;0,004297654
177209,1;0,004297654
177225,6;0,004297654
177242,4;0,004297654
177258,8;0,004297654
177275,3;0,004297654
177291,9;0,004297654
177308,5;0,004297654
177325,2;0,004307918
177341,6;0,004318182
177358,2;0,004309384
177374,7;0,00429912
177391,3;0,004300586
177408,7;0,00429912
177424,4;0,004297654
177441,2;0,004282991
177457,6;0,004319648
177474,3;0,004307918
177490,7;0,004313783
177507,3;0,004307918
177523,8;0,004309384
177540,9;0,004309384
177557,2;0,004309384
177573,8;0,00428739
177590,1;0,00429912
177606,7;0,00429912
177623,7;0,00429912
177639,8;0,004303519
177656,4;0,004313783
177672,9;0,004306452
177689,5;0,004303519
177706,2;0,00432698
177723,1;0,004318182
177739,3;0,004313783
177755,8;0,004321115
177772,4;0,004332845
177788,9;0,004319648
177805,5;0,004331378
177822;0,004340176
177838,6;0,004340176
177855,6;0,004340176
177872,4;0,00433871
177888,4;0,004332845
177904,9;0,004328446
177921,6;0,004343109
177938;0,004353372
177955,4;0,004360704
177971,1;0,004360704
177987,7;0,004365103
178004,3;0,004370968
178021,1;0,004381231
178037,4;0,004381231
178054;0,004372434
178070,7;0,004378299
178087,4;0,004376833
178103,7;0,004360704
178120,2;0,004372434
178137;0,0043739
178153,6;0,004370968
178170,2;0,004372434
178186,5;0,0043739
178203,1;0,004360704
178219,7;0,004354839
178236,2;0,004354839
178252,8;0,004337243
178269,4;0,004334311
178286,1;0,004340176
178302,5;0,004315249
178319,3;0,00432698
178336;0,004328446
178352,2;0,004316716
178368,7;0,004322581
178385,4;0,004322581
178401,9;0,004322581
178419;0,004322581
178435;0,004332845
178452,3;0,004319648
178468,1;0,004325513
178484,8;0,004300586
178501,3;0,004309384
178517,8;0,004307918
178534,4;0,004306452
178551,8;0,004300586
178567,5;0,004302053
178584,1;0,004297654
178600,7;0,004297654
178617,3;0,004302053
178634;0,004304986
178650,4;0,004297654
178667;0,004300586
178683,5;0,004288856
178700,7;0,004296188
178716,6;0,004309384
178733,2;0,004310851
178749,8;0,004304986
178766,3;0,004304986
178782,9;0,004313783
178799,6;0,004310851
178816;0,004304986
178832,6;0,00432698
178849,2;0,004340176
178865,8;0,004315249
178882,3;0,004315249
178898,9;0,004315249
178915,4;0,004315249
178934,4;0,004312317
178948,6;0,004319648
178965,1;0,004302053
178982,4;0,004304986
178998,3;0,004310851
179015;0,004310851
179031,5;0,004306452
179048;0,004294721
179065;0,004300586
179081,1;0,004302053
179097,7;0,004300586
179114,4;0,004290323
179130,9;0,00429912
179147,4;0,004303519
179163,9;0,004303519
179180,5;0,004297654
179197,1;0,004282991
179213,6;0,004294721
179230,6;0,004291789
179246,8;0,004291789
179263,4;0,004319648
179279,9;0,004306452
179296,5;0,004310851
179313;0,004315249
179329,6;0,004310851
179346,4;0,004325513
179362,7;0,00432698
179379,3;0,00432698
179395,9;0,004319648
179412,6;0,004334311
179429;0,004307918
179445,7;0,004307918
179462,3;0,004309384
179478,7;0,004316716
