83064,76;0,005054252
83080,72;0,005043988
83097,28;0,005061584
83113,84;0,005057185
83130,41;0,00505132
83146,98;0,005067449
83163,55;0,005085044
83180,38;0,005089443
83196,68;0,005092375
83213,37;0,005095308
83229,81;0,005107038
83246,38;0,00508651
83262,95;0,005090909
83279,82;0,005087977
83296,63;0,005089443
83312,65;0,005085044
83329,23;0,00508651
83345,78;0,005073314
83362,36;0,005107038
83379,06;0,005115836
83396,17;0,005109971
83412,36;0,00510264
83428,63;0,005093842
83445,18;0,005109971
83461,75;0,005107038
83478,79;0,005107038
83495,86;0,005131965
83511,45;0,005123167
83528,49;0,005134897
83544,66;0,005140762
83561,16;0,005139296
83577,71;0,005134897
83594,27;0,005134897
83610,84;0,005127566
83627,41;0,005148094
83643,98;0,005148094
83660,57;0,005167156
83677,29;0,005170088
83693,68;0,005173021
83710,24;0,005168622
83727,09;0,005168622
83743,54;0,005148094
83759,95;0,005193548
83776,57;0,005192082
83793,09;0,005192082
83809,66;0,005181818
83826,21;0,005168622
83842,78;0,005187683
83859,34;0,00518915
83875,92;0,005193548
83892,92;0,005197947
83909,05;0,005211144
83925,65;0,005209677
83942,18;0,005206745
83958,75;0,005206745
83975,31;0,005203812
83991,92;0,00521261
84008,45;0,005222874
84025,01;0,005206745
84041,58;0,005214076
84058,16;0,005206745
84074,71;0,005209677
84091,28;0,005234604
84107,85;0,005234604
84124,51;0,005249267
84140,98;0,005256598
84157,55;0,005255132
84174,11;0,005221408
84190,7;0,005228739
84207,24;0,005227273
84223,81;0,005230205
84240,38;0,005228739
84256,95;0,005225806
84274,12;0,005222874
84290,08;0,005225806
84306,65;0,005218475
84323,58;0,005211144
84339,78;0,005215542
84356,34;0,005225806
84372,91;0,005240469
84389,48;0,005240469
84406,06;0,005240469
84422,81;0,005240469
84439,19;0,005250733
84455,79;0,005255132
84472,52;0,005225806
84489,15;0,00522434
84505,95;0,005225806
84522,02;0,005225806
84538,59;0,005230205
84555,37;0,005190616
84571,77;0,005183285
84588,79;0,005180352
84604,86;0,005180352
84627,44;0,005187683
84637,99;0,00518915
84654,55;0,005187683
84671,13;0,005186217
84688,41;0,005205279
84704,63;0,005211144
84720,82;0,005227273
84737,98;0,005237537
84753,95;0,005233138
84770,63;0,005218475
84787,23;0,005215542
84804,11;0,005227273
84820,23;0,005215542
84836,77;0,005222874
84853,35;0,005225806
84869,91;0,005209677
84886,48;0,005209677
84903,53;0,005196481
84919,61;0,00517742
84936,18;0,00517742
84952,74;0,005180352
84969,42;0,005187683
84985,88;0,00518915
85002,45;0,005180352
85019,02;0,00518915
85035,58;0,00518915
85052,36;0,005174487
85069,01;0,005173021
85069,01;0,005146628
85089,01;0,005139296
85106,17;0,005139296
85122,15;0,005139296
85138,71;0,005129032
85155,27;0,005129032
85171,84;0,005120235
85188,41;0,005131965
85205,23;0,005145161
85221,55;0,00514956
85238,11;0,005145161
85255,23;0,005151026
85271,24;0,005127566
85288,11;0,005136364
85304,77;0,005134897
85321,56;0,005153959
85337,51;0,005153959
85354,8;0,005153959
85370,98;0,005134897
85387,47;0,0051261
85403,9;0,005104105
85420,34;0,005105572
85437,55;0,005111437
85453,48;0,005105572
85470,04;0,005117302
85486,61;0,005115836
85503,51;0,005121701
85519,74;0,005120235
85536,3;0,005117302
85552,88;0,005089443
85569,58;0,005105572
85586,07;0,005107038
85602,58;0,00509824
85619,14;0,005093842
85635,7;0,005093842
85652,27;0,005107038
85668,84;0,00511437
85685,41;0,005095308
85701,98;0,005107038
85719,48;0,005101173
85735,54;0,005112903
85751,67;0,005107038
85768,24;0,005107038
85784,8;0,005095308
85801,52;0,005085044
85817,94;0,005083578
85834,51;0,00507478
85851,08;0,005095308
85867,75;0,005087977
85884,21;0,005087977
85901,07;0,005076246
85917,34;0,005071848
85934,05;0,00506305
85950,48;0,005058651
85967,04;0,005058651
85983,6;0,005052786
86000,19;0,005032258
86016,74;0,005017595
86033,48;0,005017595
86049,88;0,005
86071,6;0,00498827
86083,01;0,00501173
86099,57;0,005013197
86116,14;0,005032258
86133,01;0,005029325
86149,48;0,005021994
86165,84;0,005016129
86182,57;0,005016129
86198,98;0,005016129
86216,23;0,005035191
86232,11;0,005030792
86248,67;0,005026393
86265,24;0,005035191
86281,8;0,00501173
86298,37;0,005017595
86315,52;0,005017595
86332,17;0,005010264
86348,08;0,004994135
86364,64;0,005005865
86381,23;0,005007331
86398,2;0,005030792
86414,34;0,005030792
86430,91;0,005035191
86447,47;0,005033724
86464,04;0,005038123
86480,61;0,005054252
86497,18;0,005060117
86513,9;0,005049854
86530,3;0,005038123
86546,88;0,005038123
86563,95;0,005045454
86580,55;0,005036657
86597,22;0,005032258
86613,14;0,005021994
86629,71;0,004998534
86646,27;0,005007331
86663,39;0,005001466
86680,11;0,005017595
86695,98;0,005024927
86713,3;0,005017595
86729,11;0,005017595
86745,67;0,005017595
86762,23;0,005005865
86778,81;0,005002933
86795,38;0,005002933
86812,23;0,004998534
86828,51;0,004998534
86845,07;0,005010264
86862,44;0,005010264
86878,8;0,005021994
86894,77;0,005026393
86911,41;0,005020528
86928,05;0,005017595
86944,48;0,005017595
86961,59;0,005032258
86977,91;0,005032258
86994,17;0,005033724
87010,84;0,005024927
87027,8;0,005020528
87043,98;0,005033724
87060,99;0,005026393
87077,01;0,005033724
87093,84;0,00502346
87110,55;0,005039589
87126,71;0,005067449
87144,38;0,005057185
87159,84;0,005057185
87176,41;0,005027859
87193,52;0,005027859
87209,54;0,005038123
87226,1;0,005038123
87242,95;0,005021994
87259,25;0,005024927
87275,82;0,005033724
87292,38;0,005041056
87308,95;0,005029325
87325,69;0,005048387
87342,12;0,005048387
87358,81;0,005070381
87375,4;0,005085044
87392,07;0,005104105
87725,4;0,005256598
87745,8;0,005256598
87762,38;0,005268328
87778,94;0,005259531
87795,51;0,005259531
87812,41;0,005260997
87828,64;0,005284457
87845,21;0,005272727
87861,78;0,005284457
87878,39;0,005277126
87894,91;0,005277126
87911,48;0,005290322
87928,04;0,005304985
87945,09;0,005306452
87961,22;0,005306452
87977,79;0,005307918
87994,3;0,005280059
88010,88;0,005297654
88028,16;0,005294722
88044,01;0,005294722
88060,58;0,005312317
88077,14;0,005309384
88093,71;0,005307918
88110,27;0,005309384
88126,84;0,005304985
88143,41;0,005313783
88159,98;0,005313783
88176,55;0,005303519
88193,11;0,00528739
88210,09;0,00527566
88226,24;0,005278592
88242,8;0,00526393
88259,38;0,005256598
88276,2;0,0052522
88292,51;0,005243402
88309,08;0,005250733
88326,34;0,005249267
88342,21;0,005227273
88358,77;0,005234604
88375,34;0,005249267
88391,91;0,005265396
88408,51;0,005266862
88425,04;0,005266862
88441,6;0,005247801
88458,17;0,005243402
88474,74;0,005236071
88491,51;0,005234604
88507,88;0,005228739
88524,45;0,005228739
88541,01;0,005228739
88557,57;0,005230205
88574,14;0,005193548
88590,7;0,005196481
88607,66;0,005190616
88623,86;0,005197947
88640,83;0,005193548
88656,98;0,005193548
88673,92;0,005206745
88690,11;0,005175953
88706,79;0,005165689
88723,24;0,005170088
88739,8;0,005168622
88756,38;0,005168622
88772,95;0,005168622
88789,77;0,005190616
88806,08;0,005196481
88822,79;0,00520088
88839,21;0,005197947
88855,78;0,00518915
88872,34;0,00518915
88889;0,005181818
88905,47;0,005181818
88922,09;0,005174487
88938,61;0,005192082
88955,43;0,005192082
88971,74;0,005173021
88988,72;0,005180352
89004,88;0,00517742
89021,96;0,005167156
89038,48;0,005184751
89054,85;0,005175953
89071,73;0,005167156
89087,84;0,005167156
89104,28;0,005173021
89120,84;0,005174487
89137,41;0,005184751
89154,68;0,005184751
89170,54;0,005192082
89187,11;0,005192082
89203,96;0,005209677
89220,53;0,005222874
89236,81;0,005221408
89253,39;0,00522434
89270,01;0,005230205
89286,52;0,005205279
89303,33;0,005187683
89319,66;0,005175953
89336,42;0,005175953
89352,79;0,005180352
89369,34;0,005192082
89386,7;0,005197947
89402,48;0,005162757
89419,05;0,005156891
89435,61;0,005152493
89452,19;0,005136364
89468,86;0,005134897
89485,3;0,005146628
89502,22;0,005156891
89519,03;0,005158358
89535,97;0,005158358
89552,47;0,005155426
89568,73;0,005153959
89585,41;0,005153959
89601,86;0,005124634
89696,87;0,005140762
89855,84;0,005123167
89873,91;0,00511437
89891,12;0,00511437
89907,06;0,005133431
89923,64;0,005142229
89940,41;0,005139296
89956,76;0,005152493
89973,34;0,005153959
89989,89;0,005178886
90006,45;0,005174487
90024,28;0,005170088
90357,62;0,00508651
90385,42;0,005099707
90402,04;0,005108505
90418,55;0,00510264
90435,13;0,005104105
90451,69;0,005105572
90471,99;0,005112903
90488,57;0,005117302
90505,16;0,00511437
90522,19;0,005108505
90547,89;0,005127566
90564,46;0,005111437
90581,03;0,005111437
90597,59;0,005109971
90614,18;0,005118768
90631,04;0,005124634
90647,3;0,005120235
90664,09;0,005130499
90680,43;0,005118768
90703,05;0,005109971
90719,62;0,005108505
90736,18;0,00510264
90752,76;0,005089443
90769,32;0,005089443
90785,9;0,005049854
90802,45;0,005048387
90819,02;0,00506305
90836,97;0,005070381
90859,95;0,005067449
90876,52;0,005068915
90893,09;0,005068915
90909,7;0,005099707
90926,23;0,005108505
90942,79;0,005107038
90959,73;0,005120235
90975,94;0,005123167
91001,14;0,005136364
91034,22;0,00513783
91058,05;0,005133431
91076,98;0,005123167
91118,5;0,005090909
91140,98;0,005096774
91157,54;0,00509824
91174,11;0,005099707
91194,76;0,005131965
91211,33;0,005139296
91227,89;0,005133431
91244,5;0,005142229
91261,02;0,005153959
91277,59;0,005130499
91294,16;0,005130499
91310,83;0,005148094
91328,19;0,005139296
91348,39;0,005140762
91364,96;0,005143695
91381,52;0,005156891
91398,09;0,005153959
91414,66;0,005156891
91431,59;0,005159824
91448,14;0,005158358
91464,36;0,005175953
91480,93;0,005165689
91514,05;0,00514956
91530,63;0,005158358
91547,19;0,005168622
91563,75;0,005167156
91580,32;0,005161291
91597,25;0,005158358
91613,45;0,005153959
91630,02;0,005153959
91660,45;0,005143695
91684,56;0,005170088
91701,14;0,005158358
91717,7;0,005158358
91734,49;0,005190616
91750,83;0,00520088
91767,41;0,005184751
91783,97;0,00517742
91807,05;0,005173021
91823,73;0,005153959
91840,21;0,005143695
91857,24;0,005136364
91873,31;0,005134897
91889,88;0,005099707
91906,91;0,005083578
91923,02;0,005070381
91939,78;0,005055719
91960,84;0,005055719
91977,63;0,005051319
91993,99;0,005055719
92010,55;0,005051319
92027,5;0,005041056
92043,68;0,00506305
92060,24;0,005082111
92076,8;0,005087977
92093,38;0,005087977
92115,42;0,005099707
92132;0,005115836
92148,56;0,005109971
92165,13;0,005124634
92181,82;0,00511437
92198,82;0,005120235
92244,36;0,005140762
92277,66;0,005162757
92306,73;0,005151026
92325,32;0,005174487
92341,88;0,005156891
92358,45;0,005178886
92375,02;0,005178886
92391,59;0,005186217
92408,15;0,005192082
92429,05;0,005192082
92445,9;0,005187683
92462,55;0,005195015
92478,75;0,00520088
92495,31;0,00520088
92511,88;0,005222874
92528,7;0,005236071
92545,02;0,005234604
92561,59;0,005240469
92582,91;0,005250733
92599,48;0,005236071
92616,05;0,005236071
92633,3;0,005237537
92649,8;0,005243402
92665,75;0,005243402
92682,31;0,005243402
92699,52;0,005243402
92715,45;0,005246334
92738,64;0,005241936
92755,21;0,005259531
92772,49;0,005262463
92788,36;0,00528739
92804,91;0,005266862
92821,82;0,00527566
92838,05;0,00526393
92854,67;0,00526393
92871,83;0,00526393
92895,49;0,005258065
92912,06;0,005256598
92928,63;0,005256598
92945,32;0,005253666
92965,12;0,005233138
92978,34;0,005246334
92994,98;0,005230205
93011,48;0,005236071
93028,09;0,005227273
93050,52;0,005219941
93067,49;0,005217009
93083,8;0,005219941
93101,02;0,005222874
93116,8;0,005222874
93133,36;0,005246334
93150,08;0,005236071
93166,49;0,005230205
93183,06;0,005230205
93205,34;0,005231672
93222,36;0,00521261
93238,52;0,00520088
93255,04;0,005203812
93271,77;0,005196481
93288,24;0,005214076
93304,73;0,005203812
93321,3;0,005208211
93337,88;0,005206745
93360,67;0,00521261
93377,23;0,005203812
93393,8;0,005219941
93410,66;0,005217009
93426,94;0,00521261
93443,51;0,005208211
93460,93;0,005218475
93477,39;0,005230205
93493,73;0,005230205
93515,84;0,005228739
93532,54;0,005221408
93549,35;0,005221408
93565,55;0,005237537
93582,11;0,005237537
93599,02;0,005237537
93615,88;0,005237537
93632,4;0,005241936
93648,38;0,005222874
93670,05;0,005240469
93686,63;0,005244868
93703,38;0,005249267
93719,86;0,005225806
93736,72;0,005240469
93753,73;0,005225806
93770,66;0,005230205
93787,23;0,005206745
93803,79;0,005203812
93825,49;0,005214076
93842,06;0,005214076
93858,94;0,005219941
93876,14;0,005211144
93891,77;0,005246334
93908,66;0,005240469
93924,9;0,005259531
93941,47;0,005259531
93958,26;0,005255132
93981,61;0,005253666
93998,17;0,005258065
94014,74;0,00526393
94031,3;0,005282991
94047,88;0,005259531
94064,84;0,005258065
94081,34;0,005277126
94097,57;0,005277126
94114,13;0,005284457
94136,35;0,005282991
94152,99;0,005284457
94169,49;0,005282991
94186,05;0,005291789
94202,64;0,005282991
94219,99;0,005282991
94235,84;0,005269795
94252,33;0,00527566
94269,29;0,005246334
94292,22;0,005241936
94308,86;0,005240469
94325,74;0,005265396
94342,18;0,005272727
94358,49;0,005259531
94375,2;0,005259531
94391,62;0,005256598
94408,19;0,005268328
94425,03;0,005281525
94447,34;0,00528739
94463,91;0,005296188
94480,48;0,005294722
94497,16;0,005282991
94513,6;0,005284457
94530,17;0,005285924
94546,73;0,005312317
94563,72;0,005306452
94581,87;0,005291789
94604,65;0,005290322
94621,22;0,005285924
94637,78;0,005285924
94654,49;0,005288857
94670,91;0,00527566
94687,63;0,005265396
94704,05;0,005277126
94720,62;0,005296188
94737,61;0,005296188
94753,74;0,005293255
94776,09;0,005302053
94792,65;0,005304985
94809,22;0,005313783
94825,78;0,005313783
94842,66;0,005312317
94859,63;0,005312317
94875,63;0,005307918
94892,16;0,005307918
94908,62;0,005318182
94932,16;0,005324047
94948,73;0,005324047
94965,3;0,005315249
94982,15;0,005321114
94998,43;0,005346041
95014,99;0,005344575
95031,82;0,005351906
95048,85;0,005347508
95064,7;0,005356305
95087,02;0,005356305
95103,58;0,005354839
95120,41;0,005360704
95136,71;0,005360704
95153,28;0,005343108
95169,86;0,00533871
95186,41;0,005331378
95202,98;0,005326979
95219,55;0,00533871
95242,97;0,005326979
95259,54;0,005326979
95276,41;0,005328446
95292,66;0,005335777
95309,23;0,005353373
95325,91;0,00533871
95342,37;0,005359238
95359,31;0,005347508
95375,5;0,005348974
95398;0,005344575
95414,88;0,005343108
95433,7;0,005329912
95450,49;0,005322581
95467,72;0,005322581
95483,4;0,005316716
95499,96;0,005313783
95516,52;0,005324047
95533,42;0,005316716
95556,36;0,00529912
95572,93;0,005294722
95589,5;0,005296188
95606,06;0,005296188
95622,81;0,00529912
95639,68;0,00529912
95655,77;0,005300587
95672,34;0,005319648
95688,9;0,005316716
95711,82;0,005312317
95729,01;0,00533871
95744,95;0,005332845
95761,85;0,005325513
95778,28;0,005340176
95794,66;0,005343108
95811,23;0,005341643
95827,8;0,005334311
95845,25;0,00536217
95868,21;0,005357771
95884,78;0,005347508
95901,34;0,005341643
95917,91;0,005341643
95934,48;0,005363637
95951,05;0,005375367
95967,63;0,005390029
95984,18;0,005385631
96000,75;0,005363637
96022,9;0,005363637
96039,47;0,005379765
96056,88;0,005423754
96072,88;0,005423754
96089,16;0,005409091
96105,73;0,005407625
96122,3;0,005417889
96138,87;0,005417889
96155,62;0,005410557
96178,59;0,005420821
96195,85;0,005441349
96212,55;0,005441349
96228,58;0,005445748
96244,92;0,005441349
96262,42;0,005442815
96278,99;0,005438417
96295,73;0,005464809
96312,12;0,005451613
96333,66;0,005450147
96350,86;0,005417889
96366,79;0,005409091
96383,35;0,005410557
96400,29;0,005400294
96416,49;0,005379765
96433,09;0,005370968
96449,63;0,005372434
96466,63;0,005356305
96488,48;0,005360704
96505,09;0,005332845
96521,62;0,005332845
96538,19;0,005310851
96554,75;0,005300587
96571,31;0,005300587
96587,88;0,005307918
96604,87;0,005328446
96621,47;0,005319648
96643,72;0,005322581
96660,3;0,005325513
96677,39;0,005340176
96693,42;0,005340176
96710;0,005337243
96726,55;0,005332845
96743,13;0,005332845
96760,04;0,005329912
96777;0,005329912
96798,64;0,005329912
96815,2;0,005324047
96832,72;0,005315249
96849,23;0,005329912
96864,91;0,005326979
96881,47;0,005316716
96898,27;0,005306452
96914,77;0,005302053
96931,23;0,005307918
96952,69;0,005304985
96969,31;0,005319648
96986,34;0,005282991
97002,39;0,005268328
97018,96;0,005269795
97035,52;0,005269795
97052,36;0,005250733
97068,66;0,005262463
97085,22;0,005260997
97116,48;0,005274194
97133,05;0,005278592
97150,41;0,00527566
97166,35;0,005271261
97182,75;0,005282991
97199,32;0,005272727
97215,88;0,005294722
97233,35;0,005297654
97249,03;0,005328446
97271,18;0,005329912
97287,76;0,005329912
97304,45;0,00529912
97320,91;0,005303519
97337,45;0,005282991
97354,02;0,005285924
97371,52;0,005290322
97387,15;0,005290322
97403,92;0,005306452
97425,8;0,005300587
97442,84;0,005293255
97458,95;0,005318182
97476,05;0,005318182
97492,07;0,005309384
97508,64;0,005329912
97525,45;0,005341643
97541,91;0,005341643
97558,42;0,005360704
97579,91;0,005365103
97596,48;0,005357771
97613,05;0,005353373
97629,63;0,005356305
97646,19;0,005370968
97663,62;0,005370968
97679,48;0,005340176
97695,88;0,005343108
97712,45;0,005322581
97735,85;0,005310851
97752,43;0,005296188
97768,99;0,005297654
97785,76;0,005297654
97802,24;0,005319648
97819,38;0,005316716
97835,4;0,005304985
97851,84;0,005304985
97868,39;0,005296188
97935,1;0,005277126
97951,77;0,005265396
97968,24;0,005255132
97985,07;0,005260997
98002,02;0,005277126
98017,94;0,005277126
98034,52;0,005274194
98058,07;0,005272727
98075,03;0,005260997
98091,23;0,005227273
98107,77;0,00522434
98124,84;0,005215542
98141,13;0,005222874
98157,48;0,005222874
98174,05;0,005218475
98191,41;0,00521261
98214,88;0,005208211
98231,68;0,005218475
98248,02;0,005218475
98264,59;0,005230205
98281,34;0,005227273
98298,25;0,005209677
98314,9;0,005225806
98330,85;0,005225806
98347,68;0,005219941
98369,08;0,005218475
98385,65;0,00522434
98402,22;0,005219941
98418,79;0,005219941
98435,35;0,005217009
98452,15;0,005234604
98468,98;0,005214076
98485,11;0,005209677
98501,62;0,005209677
98523,65;0,005219941
98540,22;0,005228739
98556,8;0,005246334
98573,35;0,005230205
98589,93;0,005249267
98606,48;0,005255132
98623,21;0,005260997
98639,62;0,005250733
98656,18;0,005250733
98679,02;0,005260997
98696,33;0,005265396
98716,84;0,005250733
98731,05;0,005228739
98747,63;0,00522434
98764,19;0,005233138
98780,76;0,005233138
98797,33;0,005222874
98813,91;0,005222874
98836,31;0,005206745
98853,13;0,005192082
98869,45;0,005187683
98886,02;0,005208211
98903,24;0,005208211
98919,14;0,005209677
98935,82;0,005222874
98952,45;0,005205279
98968,89;0,005205279
98991,15;0,005214076
99007,81;0,005203812
99024,3;0,005206745
99040,86;0,005222874
99057,42;0,005206745
99073,98;0,005206745
99090,55;0,005187683
99107,29;0,00518915
99123,69;0,005211144
99146,71;0,005215542
99163,28;0,005208211
99179,96;0,005211144
99196,42;0,005205279
99212,98;0,005211144
99229,55;0,00518915
99246,12;0,00518915
99263,66;0,005181818
99279,27;0,005208211
99302,79;0,005219941
99319,44;0,005222874
99336,27;0,005222874
99352,49;0,005219941
99369,07;0,005265396
99385,63;0,005262463
99402,2;0,005262463
99418,77;0,005269795
99435,34;0,005265396
99458,88;0,005247801
99475,7;0,005246334
99492,21;0,005236071
99511,26;0,005221408
99528,27;0,005203812
99544,63;0,005195015
99560,96;0,00520088
99577,83;0,005199414
99594,48;0,005209677
99615,84;0,005199414
99632,44;0,00518915
99648,98;0,005193548
99665,55;0,005202346
99682,12;0,005203812
99698,73;0,00518915
99715,25;0,005171554
99731,86;0,005165689
99748,38;0,005161291
99771,94;0,005175953
99788,5;0,005152493
99805,08;0,005152493
99821,63;0,005156891
99838,2;0,005156891
99854,77;0,005167156
99871,33;0,005171554
99887,9;0,005184751
99904,51;0,005184751
99926,77;0,005190616
99943,53;0,005184751
99960,14;0,005184751
99976,59;0,005184751
99993,03;0,00517742
100009,8;0,005184751
100026,2;0,005171554
100043,1;0,005174487
100059,3;0,005162757
100392,6;0,005173021
100409,2;0,005184751
100425,8;0,00514956
100442,3;0,005145161
100458,9;0,005153959
100475,5;0,005120235
100492,3;0,005115836
100509,1;0,005124634
100525,2;0,005115836
100541,8;0,005115836
100558,5;0,005115836
100575,3;0,005105572
100591,4;0,005120235
100608,1;0,005121701
100624,9;0,005117302
100641,1;0,005120235
100657,8;0,005123167
100674,3;0,005131965
100690,8;0,005130499
100707,4;0,005131965
100724;0,005121701
100740,6;0,005133431
100757,1;0,005142229
100774,6;0,005136364
100790,4;0,00513783
100807,4;0,005134897
100823,5;0,005136364
100840,4;0,005171554
100856,6;0,00517742
100873,1;0,005180352
100890,1;0,005186217
100906,2;0,005186217
100922,8;0,005181818
100939,3;0,005158358
100955,9;0,005181818
100972,5;0,005197947
100989,1;0,005199414
101005,6;0,005196481
101022,2;0,005196481
101038,7;0,005193548
101055,3;0,005180352
101071,9;0,005192082
101088,4;0,005186217
101105,5;0,005175953
101121,6;0,005162757
101138,1;0,005159824
101154,7;0,005167156
101171,3;0,005165689
101187,9;0,005165689
101204,4;0,005167156
101221;0,005165689
101237,7;0,005162757
101254,1;0,005159824
101270,7;0,005146628
101287,2;0,005148094
101303,8;0,00513783
101320,6;0,005140762
101336,9;0,00514956
101353,5;0,005130499
101370,1;0,005130499
101386,6;0,005121701
101403,2;0,00511437
101419,8;0,005109971
101436,6;0,005109971
101452,9;0,005109971
101470,3;0,005099707
101486;0,005101173
101507,2;0,005089443
101519,2;0,005095308
101535,7;0,005080645
101553,1;0,005068915
101568,9;0,005071848
101585,4;0,005085044
101602;0,005076246
101618,8;0,005076246
101635,1;0,005076246
101651,7;0,005089443
101668,7;0,005089443
101685;0,005089443
101701,6;0,005061584
101718;0,00507478
101734,6;0,005080645
101751,1;0,005093842
101767,7;0,005090909
101784,2;0,00510264
101800,9;0,005121701
101817,4;0,00513783
101833,9;0,005136364
101850,5;0,005133431
101867,1;0,005143695
101883,6;0,005130499
101900,2;0,005121701
101917,3;0,005127566
101933,4;0,005131965
101949,9;0,005120235
101966,5;0,005117302
101983;0,005087977
101999,6;0,005093842
102016,2;0,005099707
102032,7;0,005109971
102049,6;0,005107038
102066;0,005107038
102082,5;0,005109971
102099;0,005115836
102116,4;0,005115836
102132,1;0,00509824
102148,7;0,005085044
102165,5;0,005073314
102181,8;0,005068915
102198,6;0,005090909
102215;0,00509824
102231,6;0,00511437
102248,5;0,005107038
102265;0,005120235
102281,2;0,0051261
102298;0,0051261
102314,4;0,005127566
102330,9;0,005140762
102347,8;0,005152493
102364,1;0,005148094
102380,7;0,005156891
102398,1;0,00514956
102414,7;0,005151026
102430,4;0,005152493
102447,4;0,005167156
102463,5;0,005152493
102480;0,005131965
102496,6;0,005118768
102513,2;0,005133431
102529,7;0,005121701
102546,3;0,005121701
102562,9;0,00511437
102579,7;0,005134897
102596;0,005127566
102612,6;0,005127566
102629,4;0,00511437
102646,1;0,005118768
102662,3;0,005123167
102678,8;0,005121701
102695,4;0,005121701
102712;0,005111437
102728,5;0,005104105
102745,1;0,00508651
102761,7;0,00508651
102778,2;0,005061584
102794,8;0,005045454
102811,4;0,005046921
102828,6;0,005024927
102845,2;0,005024927
102861,1;0,005008798
102877,6;0,005010264
102894,2;0,004995601
102911;0,004995601
102927,4;0,004995601
102943,9;0,004992669
102960,9;0,005005865
102977,2;0,004961877
102994;0,004951613
103010,2;0,00494868
103027,3;0,004958944
103043,5;0,004961877
103059,9;0,004958944
103077;0,004967742
103093;0,004978006
103109,6;0,004985337
103126,5;0,004995601
103143,1;0,004986804
103159,3;0,004997068
103175,8;0,004997068
103192,5;0,005010264
103209;0,005007331
103225,6;0,004998534
103242,1;0,00501173
103258,7;0,004998534
103275,3;0,005008798
103291,8;0,005013197
103308,4;0,005010264
103324,9;0,005004399
103341,5;0,005004399
103358,1;0,005007331
103374,6;0,005007331
103391,2;0,005004399
103407,8;0,005014663
103424,3;0,005013197
103441,6;0,00502346
103457,7;0,00502346
103474;0,005027859
103490,9;0,005017595
103507,3;0,00501173
103523,7;0,005020528
103540,5;0,005046921
103556,9;0,005049854
103573,5;0,005070381
103590,1;0,005054252
103606,6;0,005085044
103623,4;0,00506305
103639,8;0,00507478
103656,7;0,005071848
103672,8;0,005087977
103689,4;0,005095308
103706;0,005096774
103722,5;0,005092375
103739,4;0,005089443
103756;0,005089443
103772,2;0,005068915
103788,8;0,005060117
103805,4;0,005042522
103822;0,005039589
103838,5;0,005029325
103855,7;0,005048387
103871,6;0,005046921
103888,8;0,005048387
103904,8;0,005048387
103922;0,005036657
103938,6;0,005038123
103954,8;0,005039589
103971,3;0,005032258
103987,6;0,005038123
104004,2;0,005051319
104021;0,005055719
104037,6;0,005060117
104054,1;0,005049854
104070,4;0,005051319
104087,5;0,005052786
104103,6;0,005052786
104120,3;0,005060117
104136,8;0,005065983
104153,3;0,005076246
104169,8;0,005080645
104186,6;0,005080645
104203,1;0,005064516
104219,5;0,005064516
104236,8;0,005076246
104253,3;0,005068915
104269,4;0,005067449
104285,8;0,005055719
104302,4;0,005036657
104319;0,00502346
104335,6;0,00502346
104352,1;0,005026393
104368,6;0,005038123
104385,2;0,005039589
104401,8;0,005039589
104418,3;0,005039589
104435,1;0,005026393
104451,5;0,005039589
104468,8;0,005060117
104484,8;0,005054252
104501,2;0,005057185
104517,8;0,005051319
104535,1;0,005061584
104551,7;0,005057185
104567,5;0,005058651
104584,8;0,00506305
104601,3;0,005052786
104617,1;0,005061584
104633,7;0,005073314
104650,4;0,005073314
104667;0,005060117
104683,6;0,005068915
104700;0,005061584
104717;0,005080645
104733,1;0,005092375
104749,7;0,005096774
104766,2;0,005105572
104782,8;0,005117302
104799,4;0,005120235
104815,9;0,005134897
104832,6;0,005134897
104849,2;0,00513783
104865,8;0,005134897
104882,6;0,005146628
104898,8;0,005171554
104915,3;0,005148094
104932,5;0,00514956
104948,5;0,005168622
104965,6;0,005168622
104981,7;0,005158358
104998,2;0,005171554
105015,3;0,005178886
105031,3;0,005161291
105047,9;0,005152493
105065,3;0,005139296
105081;0,005124634
105097,6;0,005124634
105114,2;0,005130499
105131,3;0,005134897
105147,8;0,005153959
105163,8;0,005140762
105180,7;0,005134897
105197,5;0,005124634
105213,5;0,005118768
105230,1;0,005111437
105246,8;0,00510264
105263,3;0,005101173
105279,8;0,005101173
105296,8;0,005105572
105312,9;0,005111437
105329,7;0,005107038
105346,1;0,005104105
105362,7;0,005112903
105379,5;0,005115836
105395,8;0,0051261
105412,3;0,005139296
105428,9;0,005136364
105445,9;0,005120235
105462,3;0,00511437
105478,6;0,00511437
105495,5;0,005115836
105512,1;0,005118768
105528,8;0,00514956
105544,9;0,005130499
105563,6;0,00513783
105578,4;0,005133431
105594,6;0,005136364
105611,1;0,00514956
105627,7;0,00514956
105644,3;0,00514956
105660,8;0,005123167
105677,4;0,00511437
105694;0,005112903
105710,5;0,005112903
105727,8;0,005104105
105744,1;0,005115836
105760,3;0,005124634
105776,8;0,005124634
105793,4;0,005139296
105809,9;0,005136364
105826,5;0,005120235
105843,4;0,005124634
105859,6;0,005115836
105876,2;0,005131965
105892,8;0,005131965
105909,4;0,005136364
105926,5;0,005131965
105942,5;0,00513783
105959;0,005130499
105975,7;0,005130499
105992,2;0,005140762
106009,1;0,005124634
106025,8;0,005117302
106042;0,005104105
106058,4;0,005117302
106075,1;0,00511437
106092,1;0,005112903
106108,1;0,005112903
106124,7;0,005109971
106141,4;0,005109971
106157,8;0,005115836
106174,5;0,005121701
106191;0,005079179
106207,5;0,005077713
106224,1;0,005076246
106240,7;0,005076246
106257,2;0,005076246
106273,8;0,005054252
106290,9;0,005070381
106307,1;0,005104105
106323,5;0,005099707
106340,1;0,00510264
106356,6;0,00510264
106373,2;0,00509824
106389,9;0,005089443
106406,6;0,005093842
106423,1;0,005093842
106439,5;0,005079179
106456;0,005052786
106472,8;0,005039589
106489,3;0,005043988
106505,7;0,005043988
106522,5;0,005045454
106539,4;0,005061584
106555,4;0,005061584
106572;0,005046921
106588,6;0,005052786
106605,5;0,005064516
106622;0,005051319
106639;0,005042522
106655,4;0,005042522
106671,4;0,005038123
106688,3;0,005030792
106704,5;0,005013197
106721,8;0,005035191
106737,7;0,005016129
106754,2;0,005016129
106771,1;0,00501173
106787,6;0,005010264
106804,1;0,005027859
106820,5;0,005029325
106837,1;0,005041056
106854,2;0,005052786
106870,2;0,005055719
106886,9;0,00506305
106904,1;0,005042522
106920,9;0,005052786
106936,6;0,005057185
106953;0,005042522
106969,9;0,005046921
106986,2;0,005049854
107002,7;0,005041056
107019,3;0,005042522
107036;0,005067449
107053,1;0,00507478
107069,3;0,005071848
107085,6;0,005073314
107102,1;0,005065983
107118,7;0,005065983
107135,3;0,005051319
107151,8;0,005046921
107168,4;0,005042522
107185,1;0,005052786
107201,5;0,005061584
107218,3;0,005058651
107235,3;0,005064516
107251,3;0,005071848
107267,8;0,005080645
107285;0,00509824
107300,9;0,005065983
107317,6;0,005065983
107334,1;0,005065983
107350,8;0,005067449
107367,3;0,005067449
107383,8;0,005067449
107400,9;0,005064516
107417,8;0,005073314
107433,5;0,005068915
107450,6;0,005057185
107466,6;0,005058651
107483,2;0,005058651
107499,8;0,005048387
107516,3;0,005039589
107533,3;0,005041056
107549,8;0,005033724
107566;0,005036657
107582,6;0,005020528
107599,1;0,005020528
107618,1;0,005026393
107632,6;0,005008798
107649,1;0,005016129
107665,5;0,005004399
107682,8;0,005004399
107698,5;0,005007331
107715,1;0,005007331
107731,7;0,004995601
107748,2;0,004995601
107765,6;0,004986804
107781,6;0,004992669
107797,9;0,004992669
107814,5;0,004985337
107831,2;0,004995601
107847,6;0,004997068
107864,2;0,00498827
107880,8;0,004980939
107897,3;0,004986804
107913,9;0,004989736
107930,5;0,005
107947;0,005002933
107963,6;0,005005865
107980,2;0,00498827
107996,8;0,00498827
108013,3;0,004994135
108029,9;0,004994135
108046,4;0,004994135
108063;0,005002933
108079,6;0,004992669
108096,2;0,004973607
108112,7;0,004983871
108129,5;0,004969209
108145,8;0,004964809
108162,4;0,00493695
108179,3;0,004934018
108195,5;0,004958944
108212,2;0,004939883
108228,8;0,004928153
108245,2;0,004926686
108261,8;0,004941349
108278,4;0,004928153
108294,9;0,004904692
108311,5;0,0048739
108328,1;0,0048739
108344,6;0,004890029
108361,7;0,004897361
108377,8;0,004897361
108394,3;0,004898827
108410,9;0,004898827
108427,5;0,004884164
108444;0,004884164
108461;0,004897361
108477,2;0,004888563
108493,7;0,004898827
108510,3;0,00490176
108526,9;0,004882698
108543,4;0,004878299
108560,2;0,004879766
108576,6;0,0048739
108593,1;0,004870968
108617,7;0,004848974
108626,6;0,004847507
108642,8;0,00486217
108659,4;0,004868035
108676,5;0,004868035
108692,5;0,004869502
108709,1;0,004879766
108725,7;0,004907625
108742,8;0,004904692
108759,2;0,00490176
108775,4;0,004897361
108791,9;0,004897361
108808,5;0,004878299
108825,4;0,004879766
108842,1;0,004875367
108858,4;0,004875367
108874,8;0,004885631
108891,4;0,004882698
108907,9;0,004882698
108924,6;0,004900293
108941;0,004904692
108957,6;0,004897361
108974,2;0,004922288
108990,7;0,004928153
109007,3;0,004914956
109023,9;0,004919355
109040,5;0,004917888
109057;0,004922288
109073,6;0,004935484
109090,1;0,004938417
109106,7;0,004950147
109123,3;0,004951613
109140,4;0,004963343
109156,4;0,004957478
109173;0,004972141
109189,5;0,004967742
109206,2;0,004963343
109222,7;0,004967742
109239,5;0,004941349
109256,4;0,004934018
109272,9;0,004934018
109289,2;0,004934018
109305,6;0,004934018
109322,1;0,00493695
109338,6;0,004941349
109355,2;0,00493695
109371,9;0,004939883
109388,5;0,004932551
109405;0,00493695
109421,5;0,00493695
109438;0,004941349
109455;0,00492522
109471,3;0,004935484
109487,8;0,004935484
109504,3;0,004923754
109520,9;0,004929619
109537,4;0,004926686
109554,7;0,004910557
109570,6;0,004912023
109587,9;0,004912023
109604,3;0,00491349
109620,3;0,004884164
109643,6;0,004879766
109653,4;0,004887097
109670,2;0,004887097
109686,7;0,004904692
109703,2;0,004888563
109719,7;0,004895894
109736,6;0,004885631
109752,8;0,004885631
109769,4;0,004890029
109785,9;0,004870968
109802,5;0,004878299
109819,1;0,004882698
109835,6;0,004875367
109852,4;0,004876833
109869,2;0,004890029
109885,4;0,004879766
109902;0,00486217
109918,5;0,004848974
109935,1;0,004856305
109951,8;0,004856305
109968,7;0,004857771
109985,2;0,004868035
110001,3;0,004876833
110018,5;0,0048739
110035,1;0,004888563
110051;0,004900293
110067,6;0,004900293
110085;0,004887097
110100,7;0,004865102
110117,3;0,00486217
110133,9;0,004870968
110150,6;0,004879766
110167;0,004881232
110183,5;0,004906158
110200,2;0,004898827
110217,1;0,004898827
110233,5;0,004898827
110249,8;0,004895894
110266,9;0,004885631
110283,6;0,004894428
110299,6;0,004888563
110316,4;0,004898827
110333,4;0,004912023
110349,7;0,004888563
110365,8;0,004879766
110382,3;0,004876833
110398,9;0,004875367
110415,5;0,004875367
110432,1;0,004882698
110449,1;0,004882698
110465,2;0,004895894
110481,8;0,004898827
110498,7;0,004904692
110514,9;0,004895894
110531,6;0,004904692
110548;0,004903226
110565;0,004907625
110581,1;0,004923754
110597,7;0,004923754
110614,6;0,00492522
110630,8;0,00492522
110647,7;0,004929619
110664;0,004920821
110680,7;0,004884164
110697,2;0,004878299
110713,7;0,004884164
110730,3;0,0048739
110746,8;0,004875367
110763,4;0,004870968
110779,9;0,004891496
110796,5;0,004897361
110813,1;0,004900293
110829,8;0,004909091
110846,2;0,004898827
110862,8;0,004815249
110862,8;0,00486217
110882,8;0,004866569
110899,3;0,004875367
110916;0,004872434
110932,5;0,004875367
110949;0,004865102
110965,6;0,004851906
110982,4;0,004860704
110998,7;0,004866569
111015,3;0,004879766
111031,8;0,004875367
111048,8;0,004878299
111065;0,004872434
111081,5;0,004881232
111098,1;0,004888563
111115;0,004909091
111131,5;0,004909091
111148,5;0,004909091
111164,5;0,004916423
111180,9;0,004926686
111197,9;0,004916423
111214,1;0,004929619
111231;0,004934018
111247,8;0,004938417
111263,8;0,004953079
111280,4;0,004951613
111296,9;0,004950147
111313,5;0,004935484
111330;0,004931085
111346,8;0,004929619
111363,1;0,004917888
111379,7;0,004917888
111396,4;0,004910557
111412,9;0,004906158
111429,7;0,004906158
111446,1;0,004914956
111462,6;0,004903226
111479,3;0,004900293
111495,8;0,004909091
111512,5;0,004914956
111528,8;0,004923754
111545,8;0,004903226
111562;0,004907625
111579,5;0,004907625
111595,3;0,004912023
111611,7;0,004900293
111628,4;0,004904692
111645;0,004909091
111661,6;0,004892962
111677,9;0,00490176
111694,8;0,004894428
111711,1;0,004894428
111727,6;0,004895894
111744,2;0,004898827
111760,8;0,004907625
111777,3;0,004917888
111794;0,004938417
111810,7;0,004945748
111827;0,004939883
111843,6;0,004923754
111860,3;0,004926686
111877,2;0,004931085
111893,3;0,004938417
111910,1;0,004947214
111926,4;0,004947214
111943;0,004961877
111959,6;0,004956012
111976,1;0,004972141
111992,9;0,004972141
112009,3;0,004994135
112025,8;0,004994135
112042,4;0,004989736
112059,3;0,004985337
112075,6;0,00502346
112092,1;0,005024927
112108,7;0,005021994
112125,2;0,005036657
112141,8;0,005036657
112158,4;0,005036657
112174,9;0,005048387
112191,6;0,00506305
112208,1;0,005080645
112224,6;0,005070381
112241,7;0,005085044
112258,2;0,005096774
112274,3;0,005087977
112291,3;0,005073314
112307,5;0,005096774
112324;0,005096774
112340,7;0,00511437
112357,2;0,00509824
112373,7;0,005108505
112390,5;0,005101173
112406,9;0,005108505
112423,4;0,005112903
112440;0,005124634
112456,5;0,005130499
112473,1;0,00513783
112489,7;0,005139296
112506,5;0,005153959
112522,8;0,005158358
112539,4;0,005173021
112556,1;0,005180352
112572,5;0,005184751
112589,1;0,005168622
112605,7;0,005178886
112622,5;0,005202346
112639,3;0,005206745
112655,4;0,005206745
112672,1;0,005217009
112688,5;0,005208211
112705,2;0,005193548
112721,6;0,005218475
112738,3;0,005199414
112754,8;0,005193548
112771,3;0,005183285
112788,1;0,005186217
112804,5;0,005178886
112821,1;0,00517742
112837,6;0,005171554
112854,3;0,005156891
112870,7;0,005165689
112887,9;0,005158358
112904;0,005139296
112920,4;0,005139296
112937,1;0,00514956
112954,1;0,005148094
112970,1;0,005145161
112986,8;0,005142229
113003,5;0,005134897
113019,8;0,005127566
113036,4;0,005129032
113053;0,005130499
113070,1;0,005130499
113086,1;0,005133431
113102,9;0,005120235
113119,5;0,005120235
113135,9;0,005101173
113152,4;0,005115836
113168,9;0,005109971
113185,5;0,005117302
113202,1;0,005115836
113218,6;0,005124634
113235,2;0,005123167
113251,8;0,005131965
113268,4;0,0051261
113284,9;0,005121701
113301,5;0,005121701
113318,2;0,005120235
113334,6;0,005121701
113351,2;0,005120235
113368,3;0,005139296
113384,6;0,005145161
113400,9;0,00513783
113417,8;0,005127566
113434;0,005148094
113451,3;0,005161291
113467,1;0,005173021
113483,7;0,005145161
113500,6;0,005151026
113516,8;0,005170088
113533,4;0,005158358
113550;0,005164223
113566,5;0,005164223
113583,1;0,005159824
113599,7;0,005165689
113616,2;0,005171554
113632,8;0,005173021
113649,4;0,005167156
113665,9;0,005168622
113682,5;0,005168622
113699,1;0,005170088
113715,6;0,005178886
113732,2;0,005170088
113748,8;0,005170088
113765,3;0,005173021
113781,9;0,005146628
113798,5;0,005129032
113815;0,005136364
113831,6;0,005139296
113848,9;0,00513783
113864,9;0,005136364
113881,3;0,005152493
113898;0,005131965
113914,4;0,005129032
113931;0,005120235
113947,6;0,005118768
113964,3;0,005111437
113980,7;0,005121701
113997,3;0,005093842
114013,8;0,005079179
114030,7;0,005079179
114047;0,005079179
114063,6;0,005080645
114080,3;0,005033724
114097;0,005010264
114113,4;0,005010264
114130,2;0,004998534
114146,7;0,005
114163,1;0,005005865
114179,5;0,004995601
114196,1;0,004985337
114212,6;0,004998534
114229,2;0,004975074
114245,8;0,004969209
114262,3;0,004966276
114278,9;0,004950147
114295,5;0,004954545
114312;0,004954545
114328,9;0,004951613
114345,3;0,004920821
114361,7;0,004920821
114378,3;0,00492522
114394,9;0,004922288
114412;0,004920821
114428;0,004907625
114444,6;0,004907625
114461,4;0,004890029
114477,7;0,004907625
114494,3;0,004910557
114510,8;0,004895894
114527,4;0,004895894
114544;0,004891496
114560,5;0,004895894
114577,1;0,004895894
114593,6;0,004900293
114610,2;0,004900293
114627,3;0,004892962
114643,5;0,004869502
114659,9;0,004885631
114676,6;0,004870968
114693,4;0,004872434
114709,9;0,004868035
114726,9;0,004882698
114742,8;0,004892962
114759,3;0,004907625
114775,9;0,00491349
114793,2;0,004914956
114809;0,004914956
114825,6;0,00492522
114842,4;0,004923754
114858,7;0,004919355
114875,3;0,004934018
114892,5;0,004939883
114908,4;0,004939883
114925,6;0,004939883
114941,7;0,004929619
114958,1;0,004928153
114975,4;0,004942815
114991,3;0,004944282
115007,8;0,004944282
115024,4;0,004960411
115041,2;0,004958944
115058,3;0,004960411
115074,6;0,004961877
115090,7;0,004970674
115107,3;0,004975074
115123,8;0,004980939
115140,4;0,005002933
115156,9;0,005004399
115174,3;0,005001466
115190,4;0,004998534
115206,6;0,004995601
115223,5;0,004995601
115239,8;0,004992669
115256,3;0,004991203
115273,1;0,004997068
115289,6;0,004992669
115306;0,004995601
115322,6;0,004994135
115339,2;0,004994135
115355,7;0,005013197
115372,5;0,005021994
115388,9;0,005030792
115405,8;0,005030792
115422;0,005042522
115438,6;0,005051319
115455,1;0,005049854
115471,7;0,005032258
115488,3;0,005033724
115504,9;0,005033724
115521,4;0,005017595
115538,1;0,005026393
115554,5;0,005045454
115571,4;0,005045454
115587,7;0,005048387
115604,2;0,005057185
115620,8;0,005071848
115637,4;0,005073314
115654,5;0,00507478
115670,5;0,005093842
115688;0,005090909
115703,6;0,005085044
115720,3;0,005107038
115736,8;0,005112903
115753,3;0,005117302
115770,1;0,005117302
115786,5;0,0051261
115803,3;0,005146628
115822,1;0,005162757
115836,2;0,005165689
115853,2;0,005167156
115869,3;0,005167156
115885,9;0,005167156
115902,8;0,00517742
115919;0,005192082
115935,6;0,005205279
115952,3;0,00520088
115968,7;0,005197947
115985,3;0,005211144
116001,9;0,005211144
116018,4;0,00520088
116035;0,005206745
116051,5;0,00520088
116068,3;0,005233138
116084,7;0,005258065
116101,3;0,005278592
116118,3;0,005278592
116134,7;0,005280059
116150,9;0,005281525
116167,6;0,005294722
116184,1;0,005304985
116200,6;0,005303519
116217,2;0,005303519
116234;0,005312317
116250,3;0,005322581
116266,9;0,005328446
116283,5;0,005331378
116300;0,005325513
116316,6;0,005335777
116333,6;0,005312317
116350,2;0,005322581
116366,3;0,005326979
116382,9;0,005334311
116399,5;0,005356305
116416;0,005365103
116433,3;0,00535044
116449,1;0,005346041
116466;0,005344575
116482,3;0,005351906
116498,9;0,005356305
116515,4;0,005353373
116532;0,005353373
116548,5;0,005351906
116565,1;0,005343108
116581,7;0,005334311
116598,3;0,005340176
116614,8;0,005343108
116631,5;0,005370968
116648,3;0,005370968
116664,6;0,005382698
116681,3;0,005390029
116697,7;0,005376833
116714,2;0,005379765
116730,8;0,005347508
116747,6;0,0053739
116763,9;0,005372434
116780,7;0,005372434
116797;0,005372434
116813,8;0,005376833
116831;0,005372434
116846,7;0,005397361
116863,3;0,005392962
116880;0,005398827
116896,6;0,005397361
116913;0,005401759
116929,9;0,005419355
116946,4;0,005426686
116962,9;0,005456012
116979,9;0,005451613
116995,8;0,005460411
117012,4;0,005460411
117029,3;0,005454545
117045,5;0,005482405
117062,7;0,005480939
117078,6;0,005486804
117095,7;0,005491202
117112;0,00548827
117128,4;0,005470674
117144,9;0,005470674
117162,1;0,005464809
117178,1;0,005461877
117194,6;0,005454545
117211,6;0,005478006
117227,8;0,005475074
117244,4;0,005453079
117260,9;0,005469208
117277,6;0,005467742
117294,1;0,005479472
117310,6;0,005475074
117327,6;0,005480939
117343,7;0,005486804
117360,5;0,005479472
117377;0,005467742
117393,8;0,005466276
117410;0,005466276
117426,6;0,005463343
117443,8;0,005460411
117459,7;0,005475074
117476,3;0,005492669
117492,8;0,005489736
117509,4;0,005485337
117526;0,005492669
117542,8;0,005469208
117559,2;0,005461877
117575,7;0,005458944
117592,7;0,005464809
117608,9;0,005469208
117625,4;0,005463343
117641,9;0,005466276
117658,5;0,005458944
117675,1;0,005458944
117691,6;0,005475074
117708,7;0,005457478
117724,8;0,005464809
117741,3;0,005451613
117758;0,005444282
117775,1;0,00544868
117791;0,005438417
117807,6;0,005438417
117824,2;0,005438417
117840,7;0,00543695
117866,7;0,005419355
117875,3;0,005419355
117892,4;0,005414956
117908,4;0,005420821
117925,1;0,005432551
117942,1;0,005444282
117958,1;0,005444282
117974,8;0,005428153
117991,6;0,005431085
118007,8;0,005435484
118025;0,005432551
118041;0,005432551
118057,7;0,005447214
118074,1;0,005429619
118090,7;0,005439883
118107,2;0,00543695
118123,8;0,005451613
118140,4;0,005451613
118156,9;0,005451613
118173,7;0,005457478
118190,2;0,005466276
118206,8;0,005470674
118223,3;0,005470674
118239,8;0,005469208
118256,3;0,005483871
118272,9;0,005486804
118289,5;0,005492669
118306,5;0,005508798
118323,5;0,005517595
118339,2;0,005520528
118355,7;0,005524927
118372,3;0,00552346
118388,9;0,005532258
118405,6;0,005532258
118422;0,005530792
118438,9;0,005530792
118455,3;0,005530792
118471,7;0,005552786
118488,3;0,005533725
118504,8;0,005535191
118521,4;0,005541056
118538;0,005549854
118554,5;0,005532258
118571,8;0,005532258
118587,7;0,005532258
118604,8;0,005527859
118620,8;0,005526393
118637,4;0,005526393
118653,9;0,00551173
118670,5;0,005504399
118687,5;0,005505865
118703,6;0,005524927
118721;0,00551173
118736,8;0,005521994
118753,3;0,005514663
118769,9;0,005510264
118787;0,005517595
118803;0,005517595
118819,6;0,005526393
118836,2;0,005516129
118853;0,00552346
118871,1;0,005507331
118885,9;0,005505865
118902,4;0,005491202
118919;0,005486804
118935,6;0,005480939
118952,1;0,00548827
118968,7;0,005467742
118985,6;0,005476539
119002;0,005472141
119018,4;0,005461877
119035;0,005461877
119051,7;0,005461877
119068,1;0,005472141
119084,7;0,005467742
119101,7;0,005472141
119117,8;0,005476539
119135,2;0,005486804
119151;0,005491202
119168,2;0,005482405
119184,9;0,00548827
119201,1;0,005489736
119217,2;0,005519062
119233,8;0,005526393
119250,7;0,005524927
119266,9;0,005530792
119283,5;0,005530792
119300,1;0,005524927
119316,9;0,005541056
119333,2;0,005541056
119349,7;0,005535191
119366,3;0,005542522
119382,9;0,005573314
119399,4;0,005579179
119416;0,005595308
119432,6;0,005582111
119449,2;0,005567449
119465,7;0,005558651
119482,3;0,005558651
119498,9;0,005558651
119515,4;0,005548387
119532;0,005552786
119548,5;0,005558651
119565,1;0,005560117
119581,7;0,005590909
119598,2;0,005587976
119615;0,005586511
119631,6;0,005601173
119648,3;0,005601173
119664,5;0,005601173
119681,1;0,005599707
119697,6;0,005599707
119714,2;0,005607038
119730,8;0,005599707
119747,3;0,005624634
119764;0,005623167
119780,5;0,005634897
119797;0,005659824
119813,6;0,005661291
119830,3;0,005665689
119847;0,005675953
119864,2;0,005664223
119879,9;0,005658358
119896,4;0,005659824
119913;0,005652493
119929,6;0,005653959
119946,7;0,005646628
119962,8;0,005652493
119979,3;0,005655425
119995,8;0,005655425
120012,9;0,005652493
120029,3;0,005648094
120045,5;0,005648094
120062,1;0,005636364
120078,8;0,005636364
120095,2;0,005631965
120112,2;0,005629032
120128,5;0,005627566
120144,9;0,005617302
120161,5;0,005617302
120178,7;0,005587976
120194,6;0,005582111
120211,5;0,005577713
120227,8;0,005560117
120244,4;0,005555719
120260,9;0,005542522
120277,6;0,005545455
120294;0,005545455
120311,3;0,00552786
120327,3;0,00552786
120343,7;0,00552786
120360,5;0,005532258
120376,9;0,005533725
120393,5;0,005524927
120410;0,00551173
120426,6;0,005502933
120443,6;0,005507331
120459,7;0,005533725
120476,3;0,005532258
120492,8;0,005533725
120509,4;0,00552346
120526;0,005526393
120542,8;0,00553959
120560;0,005538123
120575,7;0,005564516
120592,4;0,005555719
120608,8;0,005560117
120625,4;0,005564516
120642;0,005576246
120658,5;0,005558651
120675,1;0,005543988
120691,9;0,005543988
120708,6;0,005526393
120724,8;0,005558651
120741,3;0,005567449
120757,9;0,005568915
120775;0,005568915
120791;0,005558651
120807,6;0,005567449
120824,2;0,00557478
120840,8;0,005595308
120857,3;0,005601173
120873,9;0,005602639
120890,4;0,005604106
120907;0,005607038
120929,5;0,005609971
120940,1;0,005615836
120957;0,005608505
120973,5;0,005608505
120989,8;0,005615836
121006,4;0,005615836
121023,1;0,005601173
121039,5;0,005605572
121056,5;0,005585044
121072,7;0,005570381
121089,3;0,005564516
121105,8;0,005565982
121123;0,005583578
121139,5;0,005583578
121155,5;0,005615836
121172,1;0,005623167
121188,6;0,005621701
121205,2;0,005621701
121222;0,005607038
121238,3;0,005612903
121254,9;0,005611437
121271,5;0,005607038
121288,5;0,00561437
121304,6;0,005630499
121321,2;0,005611437
121337,9;0,005611437
121354,3;0,005623167
121371,3;0,005611437
121388,1;0,00561437
121404,1;0,005602639
121421,1;0,005609971
121437,1;0,005620235
121453,7;0,005631965
121470,3;0,005631965
121486,8;0,005633431
121503,4;0,005634897
121520;0,005630499
121536,5;0,005620235
121553,1;0,0056261
121569,7;0,005624634
121586,2;0,005624634
121602,8;0,0056261
121619,5;0,005636364
121635,9;0,005618768
121652,6;0,005624634
121669,1;0,005609971
121685,9;0,005577713
121702,2;0,005565982
121719,3;0,00557478
121735,5;0,00557478
121751,9;0,005587976
121768,5;0,00557478
121785;0,005557185
121801,6;0,005543988
121818,2;0,005535191
121834,8;0,005548387
121851,3;0,005549854
121868,1;0,005558651
121884,4;0,005546921
121901,2;0,005552786
121917,6;0,005548387
121934,2;0,005548387
121951,3;0,00555132
121967,3;0,005557185
121983,9;0,005571848
122001,3;0,005571848
122017;0,00556305
122033,5;0,00557478
122050,1;0,005570381
122066,7;0,005568915
122083,2;0,005568915
122099,8;0,005557185
122116,4;0,005557185
122132,9;0,005546921
122149,5;0,005555719
122166,1;0,005552786
122182,8;0,005571848
122199,4;0,005573314
122215,8;0,005573314
122232,3;0,005587976
122248,9;0,005587976
122265,5;0,005604106
122282;0,005602639
122299;0,005602639
122315,6;0,005609971
122331,8;0,005598241
122348,3;0,005598241
122364,9;0,005612903
122381,5;0,005611437
122398;0,005609971
122414,6;0,005609971
122431,5;0,005595308
122447,7;0,005582111
122464,4;0,005599707
122480,8;0,005593842
122497,8;0,005593842
122514;0,005593842
122530,9;0,005592376
122547,1;0,005602639
122563,7;0,005620235
122580,2;0,005608505
122596,9;0,005617302
122613,5;0,005596774
122630,2;0,005607038
122646,5;0,005593842
122663,1;0,005611437
122679,6;0,005602639
122696,2;0,005592376
122712,8;0,005596774
122729,5;0,005587976
122745,9;0,005571848
122762,5;0,005583578
122779;0,005577713
122795,6;0,005579179
122812,2;0,005577713
122828,7;0,005560117
122845,3;0,005564516
122861,9;0,005577713
122878,4;0,005598241
122895,1;0,005602639
122911,6;0,005598241
122928,1;0,005598241
122944,7;0,005590909
122961,3;0,005608505
122978,6;0,005609971
123000,9;0,005631965
123011,2;0,005617302
123027,7;0,005611437
123044,2;0,005611437
123060,7;0,005602639
123077,7;0,005605572
123093,8;0,005611437
123110,4;0,005585044
123126,9;0,005585044
123143,5;0,005592376
123160,1;0,005571848
123176,6;0,005555719
123193,5;0,005546921
123210;0,005554252
123226,3;0,005535191
123243,2;0,005549854
123259,5;0,005548387
123276;0,005558651
123292,6;0,005541056
123309,2;0,005545455
123325,7;0,005545455
123342,3;0,005561584
123358,9;0,005558651
123375,4;0,005543988
123392,1;0,005542522
123408,7;0,005552786
123425,1;0,005530792
123441,7;0,005535191
123458,3;0,005533725
123474,9;0,005561584
123491,4;0,005564516
123508,1;0,005568915
123524,5;0,00555132
123541,1;0,00555132
123557,7;0,005552786
123574,2;0,005552786
123590,8;0,00556305
123607,4;0,00553959
123624,1;0,005538123
123640,6;0,005558651
123657,1;0,005558651
123673,7;0,005582111
123690,3;0,005589443
123707,1;0,005596774
123724,1;0,005586511
123740,7;0,005590909
123756,5;0,005561584
123773,1;0,005565982
123789,6;0,00557478
123806,2;0,005565982
123822,7;0,005577713
123839,4;0,005580645
123855,9;0,005586511
123872,4;0,005576246
123889;0,005576246
123905,6;0,005564516
123922,3;0,005568915
123938,7;0,005557185
123955,4;0,005538123
123972;0,005545455
123989;0,005545455
124005;0,00556305
124021,5;0,00557478
124039,7;0,005579179
124054,7;0,005576246
124071,7;0,005576246
124087,8;0,005576246
124104,4;0,005596774
124120,9;0,005596774
124138,2;0,005618768
124154,8;0,005620235
124170,9;0,005624634
124187,2;0,005624634
124203,8;0,005621701
124220,3;0,005620235
124236,9;0,005629032
124253,5;0,005633431
124270;0,00563783
124286,6;0,005630499
124303,2;0,00563783
124319,7;0,005621701
124336,3;0,0056261
124353;0,005624634
124369,4;0,005636364
124386;0,005646628
124402,6;0,005655425
124419,1;0,005664223
124435,7;0,005664223
124452,3;0,005673021
124468,8;0,005662757
124485,4;0,005667156
124502,4;0,005651026
124518,6;0,005631965
124535,1;0,005634897
124551,7;0,005646628
124568,2;0,005645161
124585,2;0,005652493
124601,4;0,00564956
124618,3;0,005656892
124634,7;0,005655425
124651,5;0,005667156
124667,9;0,005651026
124684,2;0,005661291
124701,3;0,005656892
124717,3;0,005656892
124734,1;0,005662757
124750,7;0,005653959
124767;0,005648094
124783,6;0,005643695
124800,2;0,005639296
124816,7;0,005634897
124833,3;0,005627566
124849,9;0,005627566
124866,4;0,005627566
124883,2;0,00561437
124899,9;0,005599707
124916,4;0,005599707
124932,7;0,005601173
124949,3;0,005582111
124966,6;0,005573314
124982,4;0,005583578
124999;0,005582111
125015,5;0,005590909
125032,1;0,005604106
125048,7;0,005611437
125065,2;0,005608505
125083,8;0,005609971
125098,4;0,005615836
125114,9;0,00561437
125131,5;0,005604106
125148,8;0,005593842
125164,8;0,005586511
125181,2;0,005586511
125197,8;0,005618768
125214,3;0,005627566
125230,9;0,005624634
125247,5;0,005639296
125264,3;0,005627566
125280,6;0,005630499
125297,2;0,005630499
125313,7;0,005630499
125330,3;0,005636364
125346,9;0,005608505
125363,9;0,005608505
125380,3;0,005609971
125396,6;0,005599707
125413,3;0,005598241
125429,7;0,005607038
125446,3;0,005607038
125462,8;0,005607038
125479,4;0,005608505
125496,4;0,005604106
125512,5;0,005593842
125529,1;0,005640762
125545,7;0,005642229
125562,3;0,005643695
125578,8;0,005648094
125595,8;0,00564956
125611,9;0,005643695
125628,5;0,005639296
125645,1;0,005651026
125661,6;0,005631965
125678,6;0,005631965
125694,8;0,005631965
125711,3;0,005627566
125727,9;0,005645161
125744,7;0,005646628
125761;0,005659824
125777,6;0,005665689
125794,3;0,005665689
125811,2;0,005671554
125827,3;0,005670088
125843,9;0,005658358
125860,4;0,005668622
125877,1;0,005665689
125893,9;0,005671554
125910,6;0,005671554
125926,7;0,005671554
125943,3;0,00568915
125960,3;0,005696481
125976,7;0,005696481
125993;0,005709677
126009,5;0,005711144
126026,1;0,005714076
126042,7;0,005715542
126059,3;0,005715542
126075,9;0,005715542
126092,7;0,005719942
126108,9;0,005719942
126125,6;0,005714076
126142,1;0,005706745
126158,9;0,00568915
126175,2;0,005673021
126191,9;0,005675953
126208,3;0,005671554
126224,9;0,005656892
126241,5;0,005652493
126258;0,005658358
126275,1;0,005640762
126291,2;0,005643695
126308,3;0,00564956
126324,3;0,005640762
126340,9;0,005634897
126357,4;0,005643695
126374;0,005634897
126390,6;0,005634897
126407,7;0,005631965
126423,7;0,005621701
126440,6;0,005615836
126457,1;0,005602639
126473,4;0,005607038
126490,4;0,005617302
126506,5;0,005608505
126523,4;0,005615836
126539,7;0,005615836
126556,2;0,005599707
126572,8;0,005612903
126589,7;0,005604106
126606,7;0,005607038
126622,5;0,005592376
126639,1;0,005590909
126655,8;0,005589443
126672,2;0,005585044
126688,8;0,005599707
126705,5;0,005609971
126722,5;0,005612903
126738,5;0,005612903
126755;0,005612903
126771,6;0,005612903
126788,2;0,005605572
126804,7;0,005617302
126821,4;0,005617302
126838,2;0,00563783
126854,4;0,005618768
126871;0,005624634
126887,8;0,005624634
126904,1;0,005623167
126920,7;0,005627566
126937,7;0,005630499
126954,1;0,005630499
126970,4;0,005623167
126987;0,005617302
127003,5;0,005611437
127020,1;0,005611437
127036,8;0,005592376
127053,2;0,005601173
127069,8;0,005609971
127086,6;0,005601173
127102,9;0,005618768
127119,5;0,005639296
127136,1;0,005633431
127152,6;0,005631965
127169,9;0,00563783
127185,8;0,00564956
127202,3;0,005640762
127218,9;0,005623167
127235,5;0,005618768
127252;0,005595308
127268,9;0,00561437
127285,2;0,005593842
127301,9;0,005617302
127318,3;0,005609971
127334,9;0,005621701
127351,4;0,005621701
127368;0,005620235
127385,3;0,005620235
127401,2;0,005624634
127417,8;0,005642229
127434,3;0,005658358
127450,8;0,005652493
127467,4;0,00564956
127484;0,005651026
127500,5;0,005646628
127517,1;0,005653959
127533,7;0,005653959
127550,5;0,005642229
127566,8;0,00561437
127583,7;0,005609971
127600,4;0,005608505
127616,9;0,0056261
127633,8;0,005633431
127650,1;0,005631965
127666,7;0,005634897
127683;0,005640762
127699,3;0,005645161
127715,9;0,005629032
127732,5;0,005627566
127749,1;0,005627566
127765,6;0,005633431
127782,2;0,005645161
127798,7;0,005642229
127815,5;0,005636364
127832;0,005624634
127848,4;0,005615836
127865;0,005629032
127881,6;0,005627566
127898,5;0,005627566
127915;0,005664223
127932,1;0,005648094
127947,8;0,005658358
127964,5;0,005655425
127981;0,005655425
127998,4;0,005653959
128014,3;0,005662757
128030,7;0,005665689
128047,2;0,005667156
128063,8;0,005677419
128080,4;0,005645161
128097;0,005653959
128113,5;0,005690616
128130,1;0,005690616
128152,1;0,005692082
128163,2;0,005702346
128179,8;0,005702346
128196,3;0,005730205
128212,9;0,005740469
128229,5;0,005734604
128246;0,005734604
128262,6;0,005706745
128279,2;0,005719942
128295,7;0,005714076
128312,3;0,005714076
128329,1;0,005739003
128345,4;0,005731672
128362,5;0,005740469
128378,6;0,005737537
128395,1;0,005739003
128411,8;0,005756598
128428,3;0,005756598
128444,8;0,005753666
128461,4;0,005753666
128478;0,005760997
128494,5;0,005759531
128511,1;0,005741936
128528;0,005743402
128544,9;0,005749267
128561,1;0,005756598
128577,9;0,005744868
128593,9;0,005739003
128610,5;0,005728739
128627,1;0,005746334
128643,6;0,005743402
128660,2;0,005743402
128676,9;0,005741936
128693,3;0,005749267
128709,9;0,005727273
128726,6;0,005731672
128743,6;0,005731672
128759,6;0,005740469
128776,3;0,005728739
128793,1;0,005744868
128809,3;0,005739003
128826,2;0,005717009
128842,4;0,005725807
128859;0,005725807
128875,6;0,00572434
128892,1;0,005719942
128908,9;0,005719942
128925,3;0,005714076
128942,4;0,005714076
128958,4;0,005725807
128975;0,005727273
128991,5;0,005747801
129008,8;0,005746334
129024,7;0,005762463
129041,2;0,005790323
129057,8;0,00577566
129074,4;0,005778593
129090,9;0,005759531
129107,5;0,005759531
129124,1;0,005736071
129140,7;0,005737537
129157,2;0,00572434
129173,8;0,005719942
129190,4;0,005719942
129206,9;0,005714076
129223,5;0,005730205
129240;0,005743402
129256,7;0,005727273
129273,2;0,005717009
129289,7;0,005717009
129306,3;0,005722874
129322,9;0,005721407
129339,8;0,005719942
129356;0,005706745
129372,7;0,005733138
129389,1;0,005717009
129405,7;0,005715542
129422,3;0,005709677
129438,8;0,005703812
129455,4;0,005686217
129472;0,005684751
129488,5;0,005684751
129505,1;0,005697947
129521,7;0,005671554
129538,4;0,005671554
129554,8;0,005693548
129571,4;0,005737537
129587,9;0,005734604
129604,8;0,005749267
129621,2;0,005743402
129638,1;0,005709677
129654,2;0,005715542
129670,8;0,00571261
129687,3;0,005717009
129703,9;0,005721407
129720,5;0,005739003
129737;0,005725807
129753,7;0,005725807
129770,2;0,005722874
129786,8;0,00571261
129803,3;0,005705279
129820,5;0,005709677
129836,9;0,005709677
129853;0,005714076
129869,6;0,005714076
129886,4;0,005719942
129902,7;0,005711144
129919,6;0,005686217
129935,8;0,005673021
129952,9;0,005677419
129969;0,005677419
129985,5;0,005675953
130002,1;0,005653959
130018,7;0,005658358
130035,2;0,005653959
130051,8;0,005658358
130068,5;0,005658358
130085,1;0,005659824
130101,5;0,005665689
130118,1;0,005651026
130134,6;0,005651026
130151,3;0,005655425
130167,8;0,005656892
130184,4;0,0056261
130200,9;0,00561437
130217,9;0,005612903
130234;0,00561437
130250,9;0,005605572
130267,4;0,005634897
130284,5;0,005618768
130300,3;0,005618768
130316,9;0,005633431
130333,4;0,005607038
130350;0,005630499
130366,6;0,005651026
130383,1;0,005648094
130400;0,005618768
130416,9;0,005602639
130432,8;0,005599707
130450,4;0,005605572
130466;0,005611437
130482,5;0,005598241
130499,1;0,005586511
130515,7;0,005602639
130532,3;0,005593842
130548,8;0,005587976
130565,4;0,005583578
130581,9;0,005583578
130598,5;0,005592376
130615,4;0,005595308
130631,6;0,005607038
130648,2;0,005571848
130664,8;0,005585044
130681,3;0,005586511
130697,9;0,005586511
130714,5;0,005582111
130731,7;0,005579179
130747,6;0,005593842
130764,6;0,005608505
130780,7;0,005607038
130797,3;0,005601173
130813,9;0,005609971
130830,6;0,005611437
130847;0,005609971
130863,6;0,005607038
130880,1;0,005604106
130896,8;0,005611437
130913,3;0,005593842
130929,8;0,005593842
130946,4;0,005587976
130963;0,00556305
130979,5;0,005560117
130996,1;0,005564516
131013,1;0,005561584
131029,2;0,005568915
131046,4;0,005570381
131063,1;0,005595308
131078,9;0,005609971
131095,7;0,005609971
131112,1;0,005620235
131128,6;0,005627566
131145,2;0,005633431
131161,8;0,005648094
131178,4;0,005648094
131196,1;0,005639296
131211,8;0,005624633
131228,1;0,005624633
131245,2;0,00561437
131261,2;0,00561437
131278,2;0,005609971
131294,4;0,005623167
131310,9;0,005636364
131327,8;0,005629032
131344,1;0,005629032
131360,9;0,005601173
131377,1;0,005593842
131393,7;0,005580645
131410,5;0,005580645
131426,8;0,005589443
131443,4;0,005602639
131460,1;0,005602639
131476,5;0,005593842
131493,1;0,005590909
131509,7;0,005601173
131526,9;0,005586511
131542,9;0,005586511
131559,6;0,00557478
131575,9;0,005549854
131592,9;0,00555132
131609,1;0,005546921
131626;0,005545455
131642,2;0,005542522
131658,8;0,005542522
131675,3;0,005552786
131692,3;0,00552346
131708,5;0,005529325
131725,1;0,005529325
131741,6;0,005529325
131758,2;0,00552346
131774,7;0,005526393
131791,3;0,005548387
131807,9;0,005546921
131824,6;0,005549854
131841,2;0,005546921
131857,6;0,005552786
131874,1;0,005542522
131890,7;0,005542522
131907,3;0,005530792
131923,8;0,005535191
131940,4;0,005560117
131957;0,005567449
131973,5;0,005576246
131990,1;0,005576246
132006,8;0,005573314
132023,8;0,00556305
132039,8;0,005567449
132056,4;0,005567449
132072,9;0,005583578
132089,5;0,005565982
132106,1;0,00556305
132123,4;0,00556305
132139,5;0,005535191
132156,5;0,005527859
132172,3;0,005535191
132188,9;0,005535191
132209,2;0,005533725
132222;0,005560117
132238,6;0,005561584
132255,2;0,005580645
132271,7;0,005580645
132288,3;0,005589443
132304,9;0,005583578
132321,4;0,005585044
132338;0,005589443
132354,6;0,005577713
132371,1;0,005567449
132388,1;0,005579179
132404,7;0,00557478
132420,8;0,00557478
132438,1;0,00556305
132454,2;0,005557185
132471,1;0,005561584
132487,1;0,005561584
132503,7;0,005561584
132520,2;0,005564516
132536,8;0,005576246
132553,5;0,005580645
132569,9;0,005589443
132586,5;0,005590909
132603,1;0,005605572
132619,6;0,005629032
132636,2;0,005631965
132652,8;0,005617302
132669,3;0,005618768
132685,9;0,005624633
132702,5;0,005633431
132719,5;0,005642229
132735,6;0,005627566
132752,2;0,005629032
132768,7;0,005630499
132785,3;0,005636364
132801,9;0,00563783
132818,5;0,005636364
132835;0,005627566
132851,8;0,005642229
132868,6;0,005634897
132884,7;0,005652493
132901,3;0,005664223
132918,3;0,005668622
132934,4;0,005659824
132951;0,005656892
132967,8;0,00564956
132984,1;0,00564956
133000,7;0,005629032
133017,8;0,005621701
133034,2;0,005620235
133051;0,005615836
133066,9;0,00561437
133083,6;0,005598241
133100,1;0,005598241
133116,8;0,005595308
133133,2;0,005605572
133149,8;0,005605572
133167;0,005615836
133182,9;0,005608505
133199,5;0,005587976
133216;0,005595308
133233,2;0,005593842
133249,3;0,005607038
133266,3;0,005648094
133282,4;0,005646628
133299,7;0,005608505
133315,6;0,00561437
133332;0,005621701
133348,6;0,00564956
133365,1;0,005659824
133381,7;0,005655425
133398,3;0,00568915
133414,8;0,005692082
133431,4;0,005673021
133448;0,005673021
133464,5;0,005673021
133481,4;0,005699413
133497,7;0,005699413
133514,3;0,00570088
133531,3;0,005711144
133547,4;0,005703812
133563,9;0,005714076
133580,5;0,005711144
133597,1;0,005719942
133613,6;0,005719942
133630,2;0,005734604
133646,8;0,005736071
133664,1;0,005719942
133679,9;0,005719942
133696,5;0,005743402
133713;0,005759531
133729,6;0,005750733
133746,2;0,005758065
133762,7;0,005758065
133779,3;0,005750733
133795,9;0,005758065
133812,4;0,005758065
133829;0,005756598
133845,6;0,005760997
133862,8;0,005762463
133878,7;0,005778593
133895,3;0,005784458
133911,8;0,005774193
133928,5;0,005769795
133945;0,005744868
133961,5;0,005744868
133978,2;0,005750733
133994,7;0,005746334
134011,7;0,005730205
134028;0,005741936
134044,4;0,005741936
134061,3;0,005737537
134077,5;0,005736071
134094,2;0,005741936
134110,6;0,005741936
134127,2;0,005752199
134143,9;0,005758065
134160,3;0,005781525
134176,9;0,005807918
134194,1;0,005806452
134210,5;0,005800587
134228,5;0,005807918
134243,2;0,005802053
134259,7;0,005781525
134276,7;0,005760997
134292,9;0,005760997
134309,5;0,005734604
134326,5;0,005744868
134342,6;0,005743402
134359,1;0,005743402
134375,7;0,005749267
134393,2;0,005740469
134408,8;0,005746334
134425,4;0,005746334
134442;0,005752199
134458,5;0,005760997
134475,3;0,005777126
134491,7;0,005784458
134508,3;0,005791789
134524,8;0,005788856
134541,4;0,00581085
134557,9;0,00581085
134574,8;0,005803519
134591,1;0,005784458
134607,6;0,00576393
134624,2;0,005755132
134640,8;0,005755132
134657,3;0,005759531
134673,9;0,005772728
134690,5;0,005772728
134707;0,005772728
134723,6;0,00576393
134740,2;0,005774193
134757,3;0,00577566
134773,3;0,00577566
134789,9;0,005762463
134806,4;0,005758065
134823;0,005756598
134839,9;0,005753666
134856,1;0,005753666
134872,7;0,005771261
134889,3;0,005782991
134906,1;0,005777126
134922,4;0,005780059
134939;0,005771261
134955,7;0,005769795
134972,1;0,005807918
134988,7;0,005807918
135005,7;0,00579912
135021,8;0,00579912
135038,4;0,005791789
135055,7;0,005809384
135071,5;0,005809384
135088,7;0,005809384
135105,1;0,005791789
135121,2;0,005797654
135137,8;0,005782991
135154,3;0,005778593
135170,9;0,005777126
135187,7;0,005784458
135204;0,005774193
135220,6;0,005791789
135239,2;0,005784458
135253,7;0,005785924
135270,3;0,005768328
135286,9;0,005758065
135303,7;0,00576393
135320,3;0,005769795
135336,6;0,005759531
135353,1;0,005774193
135369,7;0,005762463
135386,3;0,005760997
135403,6;0,005739003
135419,9;0,005744868
135436,5;0,005749267
135452,6;0,005749267
135469,1;0,005747801
135485,7;0,005753666
135502,3;0,00576393
135518,8;0,005755132
135535,4;0,005750733
135551,9;0,005740469
135568,5;0,005762463
135585,1;0,005760997
135601,6;0,005746334
135618,2;0,005743402
135635,2;0,005756598
135651,8;0,005756598
135667,9;0,005782991
135684,5;0,005780059
135701;0,005780059
135717,6;0,005765396
135734,2;0,005760997
135750,8;0,005762463
135767,7;0,005746334
135783,9;0,005768328
135800,6;0,005771261
135817;0,005777126
135833,6;0,005766862
135850,8;0,005765396
135866,8;0,005784458
135883,3;0,005813783
135900,4;0,005815249
135916,4;0,005802053
135933;0,005800587
135949,5;0,005807918
135966,1;0,005796188
135983,1;0,005800587
135999,2;0,005788856
136016,1;0,005788856
136032,4;0,005788856
136049;0,005760997
136065,5;0,005766862
136082,1;0,005759531
136099;0,005762463
136115,7;0,005756598
136131,8;0,005741936
136148,3;0,005722874
136164,9;0,005703812
136182,2;0,00570088
136198,4;0,00570088
136214,6;0,005692082
136231,2;0,005692082
136250,5;0,00571261
136264,3;0,005718475
136280,9;0,005718475
136297,4;0,005752199
136314;0,005741936
136330,6;0,005730205
136347,1;0,005731672
136363,7;0,005722874
136380,3;0,005734604
136396,8;0,005747801
136413,9;0,005743402
136430;0,005753666
136446,5;0,005755132
136463,6;0,005746334
136479,8;0,005740469
136496,2;0,005733138
136512,8;0,005719942
136529,4;0,005711144
136546,8;0,005706745
136562,5;0,005706745
136579,3;0,005703812
136595,9;0,005702346
136612,6;0,005702346
136628,8;0,005752199
136645,3;0,005771261
136661,9;0,005750733
136679,3;0,005747801
136695;0,005747801
136711,6;0,005739003
136728,2;0,005739003
136744,7;0,005731672
136761,3;0,005722874
136777,9;0,005731672
136794,6;0,005727273
136811,3;0,005727273
136827,6;0,005736071
136844,4;0,005737537
136861,1;0,005730205
136877,3;0,005708211
136893,8;0,00571261
136910,9;0,00572434
136927;0,00572434
136943,5;0,005741936
136960,1;0,005747801
136976,7;0,005747801
136993,3;0,005744868
137009,8;0,005744868
137026,4;0,005750733
137042,9;0,005719942
137060;0,005730205
137076,1;0,005725807
137092,7;0,005733138
137109,2;0,005752199
137125,8;0,005758065
137142,3;0,00576393
137158,9;0,005781525
137175,7;0,005782991
137192;0,005806452
137209,1;0,005780059
137225,2;0,005777126
137241,7;0,005784458
137258,3;0,00577566
137275,5;0,005778593
137291,5;0,00578739
137308;0,005778593
137324,7;0,005782991
137341,1;0,005784458
137358,3;0,005794722
137374,5;0,005821114
137390,9;0,005807918
137407,5;0,005806452
137424,1;0,00577566
137441,1;0,005782991
137457,2;0,005793255
137473,7;0,005793255
137491;0,00576393
137506,8;0,005772728
137523,8;0,005765396
137539,9;0,005760997
137556,5;0,005746334
137573,5;0,005762463
137589,6;0,005762463
137606,2;0,005769795
137622,8;0,005769795
137639,5;0,005778593
137656,2;0,005782991
137672,5;0,005750733
137689,6;0,005750733
137705,6;0,005750733
137722,2;0,005749267
137738,7;0,005759531
137755,3;0,005756598
137772,6;0,005749267
137788,6;0,005749267
137805;0,005749267
137821,6;0,005721408
137838,4;0,005705279
137855;0,005703812
137871,3;0,005706745
137887,8;0,005680352
137904,4;0,005709677
137921;0,005714076
137937,5;0,005722874
137954,1;0,005709677
137970,7;0,005706745
137987,2;0,005696481
138003,8;0,005683285
138020,4;0,005683285
138037,2;0,005693548
138054,2;0,00571261
138070,7;0,005722874
138087;0,005731672
138103,2;0,005741936
138120,2;0,005741936
138136,4;0,005774193
138152,9;0,005778593
138170;0,005791789
138186;0,005791789
138203,2;0,005797654
138219,3;0,005784458
138235,8;0,005784458
138252,3;0,005784458
138268,9;0,005777126
138286;0,005777126
138302;0,005784458
138321,8;0,005797654
138335,1;0,005774193
138351,9;0,005772728
138368,3;0,005755132
138385,6;0,005765396
138401,5;0,00576393
138418,1;0,005777126
138434,8;0,005777126
138451,1;0,005788856
138468;0,005788856
138484,2;0,00576393
138500,8;0,005756598
138517,6;0,005774193
138533,9;0,005774193
138550,6;0,005759531
138567,1;0,005769795
138583,7;0,005781525
138601;0,005782991
138616,9;0,005782991
138633,6;0,005778593
138649,9;0,005758065
138666,5;0,005765396
138683,2;0,005759531
138699,6;0,005768328
138716,2;0,005768328
138732,7;0,005769795
138749,3;0,00581085
138765,9;0,00581085
138782,4;0,005813783
138799;0,005816716
138815,6;0,005803519
138832,1;0,005812317
138848,8;0,005809384
138865,3;0,005800587
138881,8;0,005813783
138898,4;0,005794722
138915;0,005794722
138931,5;0,005794722
138948,1;0,005802053
138964,7;0,005785924
138981,3;0,005797654
138997,8;0,005785924
139014,4;0,00578739
139031,2;0,005818182
139048,3;0,005821114
139064,1;0,005843109
139080,6;0,005829912
139097,7;0,005832845
139113,9;0,005832845
139130,3;0,005818182
139146,9;0,005802053
139163,5;0,005802053
139180,2;0,005784458
139196,6;0,005803519
139213,2;0,005806452
139229,7;0,005794722
139246,3;0,005794722
139263,3;0,00579912
139279,4;0,00579912
139296;0,005777126
139312,6;0,005758065
139329,3;0,005758065
139345,7;0,005752199
139362,3;0,005733138
139378,8;0,005709677
139395,7;0,00571261
139412;0,005715542
139428,7;0,005715542
139445,1;0,00571261
139461,7;0,005722874
139478,3;0,005753666
139494,9;0,005755132
139511,8;0,005758065
139527,9;0,005752199
139544,5;0,005752199
139561,1;0,005752199
139577,6;0,005752199
139594,2;0,005784458
139610,8;0,005739003
139627,8;0,005744868
139643,9;0,005744868
139660,5;0,005756598
139678;0,005740469
139693,6;0,005740469
139710,8;0,005744868
139727,3;0,005758065
139744,1;0,005765396
139759,9;0,00576393
139776,4;0,005755132
139793;0,005759531
139810;0,005752199
139826,1;0,005752199
139843,1;0,005782991
139859,3;0,005788856
139875,8;0,005782991
139892,5;0,005771261
139909;0,005778593
139925,5;0,005756598
139942,1;0,005744868
139958,7;0,005769795
139975,2;0,00577566
139992;0,005785924
140009,3;0,005774193
140025;0,005766862
140041,5;0,005772728
140058,2;0,005772728
140074,6;0,005752199
140092;0,005747801
140107,8;0,005731672
140124,3;0,005717009
140141,4;0,005725807
140157,9;0,005715542
140174;0,005714076
140190,6;0,00572434
140207,2;0,00572434
140224;0,005714076
140240,3;0,005715542
140257,1;0,005706745
140274,1;0,00570088
140294,6;0,005708211
140307,2;0,005719942
140323,2;0,005730205
140340,3;0,005733138
140356,3;0,005727273
140372,8;0,005727273
140389,4;0,005706745
140406;0,00570088
140423,2;0,005714076
140439,2;0,005714076
140455,7;0,005714076
140472,2;0,005721407
140488,9;0,005740469
140505,4;0,005740469
140521,9;0,005750733
140538,5;0,005750733
140555,7;0,005749267
140572,3;0,005753666
140588,2;0,005756598
140605,4;0,005756598
140621,3;0,005747801
140637,9;0,005752199
140654,5;0,005731672
140671;0,005733138
140687,6;0,005727273
140704,2;0,005740469
140720,8;0,00572434
140737,3;0,005740469
140753,9;0,005708211
140770,9;0,005714076
140787,1;0,005718475
140803,6;0,005714076
140820,2;0,005714076
140836,7;0,005718475
140853,3;0,005719942
140869,8;0,005702346
140886,4;0,005706745
140903,3;0,00571261
140919,7;0,005714076
140936,3;0,00571261
140952,7;0,005722874
140969,6;0,005714076
140986,3;0,005721408
141002,4;0,005747801
141018,9;0,005746334
141035,8;0,005728739
141052,1;0,005728739
141068,6;0,005730205
141085,2;0,005733138
141102,5;0,005715542
141118,3;0,005737537
141134,9;0,005741936
141151,5;0,005733138
141168;0,005758065
141185;0,005741936
141201,2;0,005737537
141217,7;0,005760997
141234,3;0,005769795
141251,3;0,005780059
141267,4;0,005771261
141284,1;0,005760997
141300,6;0,005791789
141317,9;0,005813783
141333,8;0,005806452
141350,3;0,005800587
141367,6;0,005802053
141383,4;0,005796188
141400;0,005796188
141416,5;0,005796188
141433,1;0,005790323
141449,7;0,005769795
141466,2;0,005769795
141482,8;0,005769795
141499,5;0,005758065
141515,9;0,005749267
141532,5;0,005741936
141549,1;0,005744868
141565,6;0,005740469
141582,3;0,005736071
141599,3;0,005739003
141615,5;0,00572434
141631,9;0,005719942
141648,5;0,005703812
141665,1;0,005728739
141681,6;0,005737537
141698,2;0,005741936
141714,9;0,005725807
141731,3;0,00571261
141747,9;0,005699413
141764,4;0,005711144
141781,3;0,005721408
141797,6;0,005711144
141814,1;0,005719942
141830,7;0,005730205
141847,3;0,005681818
141864,1;0,005717009
141880,4;0,005725807
141897;0,005736071
141913,5;0,005728739
141930,1;0,005741936
141947,1;0,005741936
141963,2;0,005765396
141980,4;0,005758065
141996,4;0,005758065
142012,9;0,005774193
142029,5;0,005794722
142046,1;0,005802053
142062,6;0,005797654
142079,9;0,005813783
142095,8;0,005813783
142112,3;0,005813783
142128,9;0,005813783
142145,5;0,005846041
142162;0,005832845
142179,1;0,005835777
142195,2;0,005844575
142212,1;0,00585044
142228,3;0,005846041
142245;0,005847508
142261,4;0,005865103
142278,1;0,005860704
142294,6;0,005870968
142311,2;0,005863636
142328,5;0,005870968
142344,3;0,005865103
142361,1;0,005869502
142377,4;0,005882698
142394;0,005888563
142410,6;0,00591349
142427,1;0,005884164
142443,7;0,005894428
142460,2;0,005895894
142476,8;0,005909091
142493,4;0,005901759
142510,5;0,005898827
142526,7;0,005906159
142543,1;0,005901759
142559,7;0,005892962
142576,2;0,005890029
142592,8;0,005884164
142609,9;0,005865103
142626;0,005869502
142643,2;0,005865103
142659,2;0,005891496
142675,6;0,005891496
142692,2;0,005906159
142708,9;0,005890029
142725,4;0,005892962
142741,9;0,005892962
142758,4;0,005909091
142775;0,005901759
142791,6;0,005917889
142808,6;0,00593695
142825;0,00593695
142841,3;0,005944282
142857,8;0,00592522
142874,4;0,005935484
142891;0,005934018
142907,6;0,005934018
142924,1;0,005938416
142940,7;0,005938416
142957,3;0,00592522
142974,1;0,005934018
142990,4;0,005926686
143007,3;0,005917889
143023,8;0,005916422
143040,1;0,005916422
143056,6;0,005929619
143073,2;0,005914956
143089,8;0,005901759
143106,6;0,005917889
143123,2;0,00592522
143139,5;0,005917889
143156;0,005914956
143172,7;0,00591349
143189,2;0,005931085
143206,2;0,005928153
143222,3;0,005922288
143238,9;0,005926686
143255,7;0,005919355
143272;0,005938416
143288,6;0,005922288
143305,4;0,005950147
143321,7;0,005950147
143338,6;0,005950147
143355,5;0,00596041
143371,4;0,005956012
143388;0,005956012
143404,6;0,005973607
143421,1;0,005972141
143438,2;0,005983871
143454,2;0,006024927
143470,8;0,00603959
143488,3;0,006041056
143503,9;0,006042522
143520,5;0,006042522
143537,1;0,00606305
143553,6;0,00606305
143570,3;0,006058651
143586,8;0,006060117
143603,3;0,006060117
143619,9;0,00608651
143636,5;0,006092376
143653;0,006092376
143669,6;0,006131965
143686,3;0,006136364
143702,7;0,006155425
143720,3;0,006167156
143735,9;0,00618915
143752,4;0,006180352
143769;0,006178886
143785,6;0,006177419
143802,1;0,006180352
143819,2;0,006173021
143835,3;0,006170088
143851,8;0,006170088
143868,4;0,006148094
143885;0,006153959
143901,6;0,006153959
143918,1;0,006153959
143934,7;0,006152493
143951,9;0,006133431
143968;0,006131965
143984,4;0,006127566
144000,9;0,006129032
144017,5;0,006131965
144034,1;0,006117302
144050,6;0,006117302
144067,2;0,006155425
144083,8;0,006134897
144100,3;0,006115836
144116,9;0,006115836
144133,5;0,006112903
144150;0,006142229
144166,6;0,006167156
144183,6;0,006186217
144199,8;0,006193548
144216,8;0,006183284
144233;0,006183284
144249,4;0,006199413
144266,2;0,006199413
144282,6;0,006215543
144299,6;0,006215543
144315,7;0,006215543
144332,7;0,006225807
144349,1;0,006215543
144365,4;0,006230205
144382;0,006228739
144398,5;0,006243402
144415,1;0,006243402
144431,9;0,00621261
144448,3;0,006227273
144464,9;0,006215543
144481,9;0,006214076
144498,6;0,006211144
144514,5;0,006218475
144531,7;0,006215543
144547,6;0,006215543
144564,2;0,006215543
144580,8;0,006219942
144597,3;0,006222874
144613,9;0,006219942
144630,8;0,006211144
144647,3;0,006211144
144663,6;0,006214076
144680,7;0,006206745
144696,7;0,006206745
144713,6;0,00621261
144730,2;0,006202346
144746,4;0,00618915
144763;0,00618915
144779,7;0,006192082
144796,1;0,006199413
144812,7;0,006190616
144829,3;0,006190616
144845,8;0,006205279
144863,2;0,006217009
144879,3;0,006217009
144895,5;0,006230205
144912,3;0,006227273
144929,2;0,006241936
144945,3;0,006228739
144962,3;0,006237537
144978,8;0,006222874
144994,9;0,006205279
145011,5;0,006195015
145028,2;0,006193548
145044,6;0,006192082
145061,2;0,006192082
145077,8;0,006206745
145094,8;0,006211144
145110,9;0,006203813
145127,5;0,006218475
145144;0,006230205
145160,9;0,006221408
145177,2;0,006214076
145194,5;0,006202346
145210,3;0,00621261
145226,9;0,00621261
145243,4;0,006203813
145260;0,006218475
145276,6;0,006227273
145293,1;0,006231672
145310,5;0,006230205
145326,3;0,006222874
145342,8;0,006206745
145359,4;0,006211144
145376,9;0,006215543
145392,5;0,006211144
145409,1;0,006214076
145425,8;0,006241936
145442,2;0,006237537
145458,8;0,006237537
145475,4;0,006231672
145492,1;0,00621261
145508,5;0,00621261
145525,4;0,006202346
145541,6;0,006205279
145558,3;0,006196481
145575;0,006195015
145591,3;0,006211144
145607,9;0,006199413
145624,5;0,006193548
145641;0,006180352
145657,6;0,006180352
145674,2;0,006173021
145691,5;0,006167156
145707,3;0,006167156
145724,2;0,006145162
145740,5;0,00613783
145757,2;0,006120235
145773,8;0,006121701
145790,6;0,006118768
145806,9;0,0061261
145823,4;0,006127566
145839,8;0,0061261
145856,4;0,006117302
145873;0,006120235
145889,5;0,006105572
145906,1;0,00611437
145922,7;0,006133431
145939,3;0,006133431
145955,8;0,006136364
145972,4;0,006139296
145988,9;0,006136364
146005,5;0,006170088
146022,1;0,006155425
146038,6;0,006131965
146055,5;0,006134897
146072,2;0,006153959
146088,9;0,00614956
146104,9;0,006155425
146121,5;0,006155425
146138,2;0,006165689
146155,3;0,00616129
146171,2;0,006105572
146187,9;0,006085044
146204,4;0,006073314
146220,9;0,006073314
146237,4;0,006067449
146254;0,006068915
146270,8;0,006055719
146287,1;0,006058651
146303,7;0,006068915
146320,3;0,006082112
146336,8;0,006082112
146353,4;0,006054252
146370;0,00605132
146386,9;0,006057185
146403,1;0,006060117
146419,7;0,006060117
146436,2;0,00607478
146452,8;0,006076247
146469,4;0,006083578
146485,9;0,006087977
146502,8;0,006096774
146519,1;0,006092376
146535,6;0,006089443
146552,2;0,006115836
146568,8;0,006117302
146585,3;0,006117302
146601,9;0,006121701
146618,5;0,006123167
146635,2;0,006134897
146651,6;0,006102639
146668,3;0,006102639
146684,7;0,006095308
146701,4;0,006090909
146718,3;0,006104106
146734,4;0,006104106
146751;0,006104106
146767,6;0,006095308
146784,1;0,006109971
146800,7;0,006099707
146817,3;0,006099707
146833,8;0,006098241
146850,4;0,00608651
146867,8;0,006089443
146883,5;0,006087977
146900,1;0,006087977
146916,7;0,006093842
146933,2;0,006105572
146950,3;0,006112903
146966,4;0,006102639
146982,9;0,006102639
147000,3;0,00613783
147016,1;0,00614956
147033,4;0,006173021
147049,2;0,006146627
147065,8;0,006140762
147082,3;0,006142229
147099,4;0,006142229
147115,5;0,006153959
147132;0,006142229
147148,9;0,006178886
147165,2;0,006177419
147181,7;0,006178886
147198,5;0,006192082
147215,2;0,006192082
147231,4;0,006184751
147248,2;0,006181818
147264,7;0,006175953
147281,1;0,006162757
147298,1;0,006151027
147314,3;0,006151027
147330,8;0,006155425
147347,4;0,006162757
147364;0,006177419
147380,5;0,006177419
147397,5;0,006168622
147413,9;0,006145162
147430,2;0,006134897
147447,1;0,006130499
147463,9;0,00613783
147479,9;0,00614956
147496,5;0,00613783
147513,1;0,006145162
147529,6;0,006133431
147546,2;0,006159824
147563,5;0,006153959
147579,3;0,006153959
147595,9;0,00614956
147612,5;0,006143695
147629;0,006152493
147646;0,006152493
147662,7;0,006152493
147678,9;0,006127566
147695,6;0,006112903
147711,9;0,006118768
147728,5;0,006118768
147745;0,006124633
147762;0,00613783
147778,6;0,006146627
147794,7;0,006152493
147811,6;0,00616129
147827,8;0,006155425
147844,4;0,006159824
147861;0,006159824
147877,5;0,006151027
147894,1;0,006151027
147910,7;0,00616129
147927,2;0,006159824
147944,2;0,006158358
147960,6;0,006139296
147977,2;0,006151027
147993,5;0,006168622
148010,3;0,006178886
148026,6;0,006174487
148043,5;0,006183285
148059,8;0,006175953
148076,3;0,006158358
148093,8;0,006145162
148109,5;0,006136364
148126,2;0,006127566
148143,3;0,006120235
148159,2;0,006117302
148175,9;0,006151027
148192,5;0,006155425
148208,9;0,006143695
148225,4;0,006158358
148242;0,006158358
148258,6;0,00614956
148275,1;0,006146627
148292;0,006134897
148308,3;0,006123167
148324,9;0,006123167
148342,3;0,006127566
148358;0,006136364
148374,5;0,00611437
148391,1;0,006096774
148411,6;0,006093842
148424,2;0,006083578
148440,8;0,006061584
148457,4;0,00606305
148474,2;0,00605132
148490,5;0,00605132
148507,1;0,006048387
148523,9;0,006049853
148540,3;0,006043988
148556,9;0,006052786
148573,3;0,006055719
148590,5;0,006048387
148606,5;0,006080645
148623;0,006068915
148639,6;0,006079179
148656,2;0,006090909
148672,9;0,006090909
148689,3;0,006101173
148705,9;0,006101173
148722,7;0,006102639
148739,1;0,006096774
148755,6;0,006112903
148772,1;0,006123167
148788,7;0,006129032
148805,3;0,006140762
148822;0,006143695
148838,4;0,006146627
148855;0,006134897
148871,5;0,006134897
148888,1;0,0061261
148904,7;0,006104106
148921,2;0,00611437
148938,3;0,00611437
148954,4;0,006101173
148970,9;0,006090909
148987,6;0,006085044
149004,4;0,006076247
149020,7;0,006071847
149037,6;0,006068915
149054,4;0,006067449
149070,3;0,00606305
149087,1;0,00606305
149103,5;0,006048387
149120;0,006061584
149136,6;0,006068915
149153,2;0,006054252
149170,7;0,006054252
149187,2;0,006045455
149202,9;0,006033725
149219,4;0,006032258
149236;0,006033725
149252,6;0,006048387
149269,1;0,006058651
149285,7;0,006054252
149302,3;0,006089443
149318,8;0,006089443
149335,8;0,006082112
149352;0,006082112
149368,9;0,006067449
149385,1;0,006061584
149402,1;0,006054252
149418,2;0,006073314
149434,8;0,006087977
149451,4;0,006090909
149468,1;0,006061584
149484,6;0,006055719
149501,1;0,00605132
149518,2;0,00603959
149534,2;0,006052786
149550,8;0,006042522
149567,3;0,00605132
149583,9;0,006055719
149600,5;0,006055719
149617;0,006073314
149633,6;0,006060117
149650,4;0,006060117
149666,7;0,006068915
149683,3;0,00607478
149699,9;0,006087977
149716,4;0,006076247
149733;0,006076247
149749,6;0,006076247
149766,1;0,006058651
149782,7;0,006058651
149799,3;0,006067449
149815,8;0,006082112
149832,4;0,006067449
149849;0,006083578
149865,7;0,006080645
149882,1;0,00607478
149899,3;0,006080645
149916;0,006099707
149931,8;0,00605132
149948,4;0,00605132
149965,3;0,006057185
149981,5;0,006045455
149998,4;0,006036657
150014,7;0,00605132
150031,2;0,00605132
150047,8;0,006043988
150064,3;0,00605132
150081,4;0,006057185
150097,5;0,006071847
150114,8;0,006068915
150130,6;0,006064516
150147,2;0,006080645
150163,7;0,006080645
150180,3;0,006065982
150196,9;0,006064516
150213,4;0,00605132
150230;0,006045455
150246,6;0,006058651
150263,1;0,006055719
150279,7;0,006052786
150296,3;0,006042522
150312,8;0,006035191
150329,4;0,006027859
150346;0,006019062
150362,5;0,006029326
150379,1;0,006030792
150395,7;0,006029326
150412,7;0,006036657
150429,4;0,006036657
150445,4;0,00603959
150461,9;0,00603959
150478,5;0,006058651
150495,1;0,006054252
150511,9;0,006054252
150528,2;0,006048387
150544,8;0,006036657
150561,6;0,006030792
150577,9;0,006030792
150594,5;0,006016129
150611;0,006026393
150627,6;0,006038123
150644,2;0,006038123
150661,2;0,006041056
150677,3;0,006042522
150693,9;0,006045455
150710,4;0,006041056
150727,3;0,006041056
150743,6;0,006027859
150760,1;0,006020528
150776,7;0,006007331
150793,3;0,006026393
150809,8;0,006026393
150826,4;0,00603959
150843;0,006054252
150860,1;0,006052786
150876,1;0,006049853
150892,7;0,006049853
150909,2;0,00607478
150926;0,006071847
150942,4;0,00608651
150959;0,006077713
150975,5;0,006071847
150992,1;0,00607478
151008,7;0,00607478
151025,2;0,006083578
151041,8;0,006098241
151058,3;0,006099707
151075,3;0,006096774
151091,5;0,006096774
151108,1;0,00611437
151124,6;0,006077713
151141,2;0,006085044
151157,9;0,006079179
151174,6;0,00607478
151190,9;0,006073314
151207,4;0,006064516
151224,1;0,00607478
151240,6;0,006071847
151257,6;0,006054252
151273,7;0,006048387
151290,3;0,006049853
151307;0,006024927
151323,6;0,006036657
151340;0,006036657
151356,5;0,006001466
151373,5;0,006008798
151389,7;0,006020528
151406,3;0,006005865
151423,5;0,005973607
151439,4;0,005967742
151456,4;0,005969208
151472,6;0,005991202
151489,1;0,006007331
151505,6;0,006029326
151522,4;0,006029326
151539;0,006023461
151555,3;0,006041056
151572,6;0,006035191
151588,5;0,006026393
151606;0,006036657
151621,9;0,006023461
151638,4;0,006023461
151654,8;0,006038123
151671,7;0,006016129
151688;0,006026393
151704,4;0,006026393
151721,4;0,006026393
151737,6;0,006026393
151754,1;0,006036657
151771,1;0,006036657
151787,3;0,005985337
151804;0,005997067
151820,4;0,006002933
151837;0,006002933
151853,8;0,006001466
151870,1;0,006020528
151886,8;0,005995601
151903,2;0,00598827
151920,3;0,005989736
151936,4;0,006004399
151952,9;0,006005865
151969,5;0,005995601
151986,1;0,005997067
152002,6;0,005997067
152019,2;0,005966276
152035,8;0,00596481
152052,3;0,00596481
152068,9;0,005973607
152085,7;0,005997067
152102,2;0,005975073
152118,6;0,006007331
152135,6;0,006
152151,7;0,006
152168,3;0,005979472
152184,9;0,005970675
152201,4;0,005967742
152218;0,005992669
152234,6;0,006016129
152251,2;0,005997067
152267,8;0,006017596
152284,3;0,006020528
152300,8;0,006017596
152317,4;0,006023461
152334;0,006019062
152350,5;0,006019062
152367,3;0,006021994
152383,8;0,006042522
152401,1;0,006020528
152416,8;0,006024927
152433,4;0,006023461
152452;0,006024927
152468,9;0,006024927
152485,1;0,006024927
152501,7;0,006024927
152518,3;0,006021994
152534,8;0,006033725
152551,4;0,006033725
152568;0,00603959
152584,6;0,006035191
152601,1;0,006024927
152617,7;0,006026393
152634,2;0,006030792
152651,7;0,006030792
152667,4;0,006036657
152684;0,006017596
152700,5;0,006011731
152717,2;0,006
152733,6;0,005991202
152750,6;0,005998534
152766,8;0,005995601
152783,3;0,006008798
152799,9;0,005972141
152816,8;0,005961877
152833,7;0,005950147
152849,6;0,005958945
152866,2;0,005961877
152882,7;0,005953079
152899,3;0,005953079
152915,8;0,005953079
152932,4;0,005951613
152949;0,005950147
152965,6;0,005980939
152982,4;0,005980939
152999,3;0,005985337
153015,7;0,005979472
153031,8;0,00598827
153048,6;0,005994135
153065,1;0,005991202
153081,6;0,006
153098,4;0,006011731
153114,7;0,006011731
153131,3;0,006005865
153147,8;0,005998534
153164,6;0,005991202
153180,9;0,006013196
153197,5;0,006010264
153214,8;0,006004399
153230,7;0,005997067
153247,7;0,006008798
153263,8;0,006014663
153280,3;0,006010264
153297,2;0,005997067
153313,5;0,005986804
153330;0,006004399
153346,6;0,006020528
153363,8;0,006023461
153379,7;0,006024927
153396,3;0,006035191
153412,9;0,006042522
153429,8;0,006057185
153446;0,006052786
153462,6;0,006058651
153479,6;0,006048387
153496;0,006019062
153512,3;0,006032258
153529,2;0,006054252
153545,4;0,006038123
153562;0,006035191
153578,5;0,006041056
153595,1;0,006052786
153611,7;0,00606305
153628,2;0,00606305
153645,6;0,00606305
153661,9;0,006071847
153678,3;0,006061584
153694,5;0,00606305
153711,1;0,006093842
153727,6;0,006109971
153744,2;0,006098241
153761,1;0,006107038
153777,3;0,006120235
153793,9;0,006120235
153810,5;0,006120235
153827,6;0,006131965
153843,6;0,006131965
153860,2;0,006162757
153876,7;0,006143695
153893,3;0,006170088
153909,8;0,006184751
153926,4;0,00618915
153943,7;0,006190616
153959,8;0,006196481
153976,8;0,006196481
153992,7;0,006209678
154009,3;0,00621261
154026;0,006217009
154042,4;0,006243402
154059,3;0,006247801
154075,9;0,006243402
154092,1;0,006243402
154108,7;0,006237537
154125,2;0,006233138
154141,8;0,006237537
154158,4;0,006247801
154174,9;0,006247801
154191,8;0,006246334
154208;0,006221408
154225,3;0,006221408
154241,4;0,006221408
154257,9;0,006222874
154274,4;0,006221408
154290,9;0,006231672
154307,5;0,006231672
154324,5;0,006237537
154340,7;0,00627566
154357,2;0,006272727
154373,7;0,006271261
154390,3;0,006274194
154406,9;0,006284458
154423,7;0,006300587
154440;0,006281525
154456,6;0,006281525
154473,1;0,006284458
154489,9;0,00627566
154508,4;0,006306452
154525,8;0,006302053
154541,5;0,006326979
154558,1;0,006321114
154575,5;0,00633871
154591,2;0,00633871
154607,8;0,006341642
154624,4;0,006321114
154641,3;0,006324047
154657,8;0,006328446
154674;0,006332844
154690,6;0,006324047
154707,2;0,006324047
154723,8;0,006325513
154740,3;0,006324047
154756,9;0,006318182
154773,5;0,006303519
154790,3;0,006300587
154806,6;0,006293255
154823,1;0,00631085
154839,7;0,006307918
154856,3;0,00629912
154872,8;0,006309384
154889,4;0,006315249
154906,8;0,006315249
154922,7;0,006319648
154939,3;0,006303519
154955,7;0,006303519
154972,3;0,006284458
154988,8;0,006285924
155005,4;0,006294722
155021,9;0,006303519
155038,6;0,006293255
155055,4;0,006282991
155071,6;0,00629912
155088,2;0,006280059
155104,8;0,006280059
155121,8;0,006280059
155137,9;0,006277126
155154,5;0,006290323
155171;0,006300587
155187,8;0,006297654
155204,2;0,006266862
155220,9;0,006304985
155237,4;0,006281525
155253,9;0,006281525
155270,4;0,006319648
155287;0,006341642
155303,6;0,00635044
155320,7;0,006335777
155336,7;0,006325513
155353,5;0,006325513
155369,8;0,006334311
155386,4;0,006335777
155403,1;0,006337244
155419,5;0,006337244
155436,5;0,006346041
155452,7;0,00635044
155469,2;0,006370968
155485,8;0,0063739
155502,5;0,006369501
155519;0,00635044
155535,5;0,006348974
155552,4;0,006334311
155568,6;0,006334311
155585,2;0,006329912
155602,6;0,00631085
155619,1;0,006313783
155635,1;0,006328446
155651,5;0,006354839
155668;0,006344575
155684,6;0,006357771
155701,2;0,006341642
155718;0,006341642
155734,8;0,006316716
155750,9;0,006321114
155767,4;0,006324047
155784;0,006335777
155800,5;0,006335777
155817,1;0,006315249
155833,7;0,006328446
155850,3;0,006324047
155866,8;0,006325513
155884;0,006312317
155900,5;0,006302053
155916,5;0,006304985
155933,9;0,006288856
155949,7;0,006297654
155966,2;0,006307918
155982,9;0,006306452
155999,4;0,00629912
156016,3;0,006284458
156032,5;0,006282991
156049,4;0,006271261
156065,6;0,006271261
156082,2;0,006258064
156098,8;0,006258064
156115,3;0,00626393
156132;0,006259531
156148,5;0,006255132
156165;0,006250733
156181,6;0,006239003
156198,2;0,00626393
156215,3;0,00626393
156231,4;0,006291789
156248,4;0,006288856
156264,8;0,006281525
156281,3;0,006272727
156298,1;0,006272727
156314,1;0,00628739
156330,7;0,006278593
156347,3;0,006278593
156363,8;0,006260997
156380,4;0,006274194
156397;0,00627566
156413,7;0,00628739
156430,1;0,006293255
156446,7;0,006290323
156463,7;0,006300587
156480,4;0,006325513
156496,9;0,006300587
156513,2;0,006303519
156529,5;0,00628739
156546,1;0,006268329
156562,6;0,006274194
156579,2;0,006278593
156595,8;0,00628739
156613;0,006293255
156628,9;0,00628739
156646,3;0,006291789
156662;0,006285924
156678,6;0,006328446
156695,2;0,006343109
156711,7;0,006344575
156728,3;0,006363636
156744,9;0,006363636
156761,5;0,006376833
156778;0,006375367
156794,7;0,00639003
156811,1;0,006400293
156828;0,006400293
156844,3;0,006381232
156860,9;0,006372434
156877,4;0,006375367
156894;0,006369501
156910,5;0,006348974
156927,1;0,006340176
156943,7;0,006337244
156960,6;0,006334311
156976,8;0,006334311
156993,4;0,006340176
157009,9;0,006319648
157026,5;0,006319648
157043,1;0,006328446
157059,7;0,006322581
157076,2;0,006318182
157092,8;0,006319648
157109,3;0,006329912
157125,9;0,006344575
157143,1;0,006341642
157159,2;0,006351906
157175,6;0,006351906
157192,2;0,006360704
157208,7;0,006344575
157225,3;0,006356305
157242,3;0,006348974
157258,4;0,006353373
157275,1;0,006331379
157291,7;0,006309384
157308,1;0,006318182
157324,7;0,006318182
157341,3;0,006351906
157358,3;0,006351906
157374,4;0,006353373
157391,1;0,006318182
157407,9;0,006328446
157424,2;0,006357771
157440,8;0,006360704
157457,3;0,006360704
157474;0,006344575
157490,7;0,006347507
157506,9;0,00633871
157523,5;0,006351906
157540;0,006369501
157557,1;0,006354839
157573,2;0,006356305
157598;0,006360704
157607,4;0,00638563
157622,9;0,006381232
157639,7;0,006357771
157656;0,006340176
157673,3;0,006331379
157689,2;0,006332844
157705,9;0,006332844
157722,3;0,006335777
157738,9;0,006340176
157755,8;0,006351906
157772,1;0,006372434
157789,2;0,006359238
157805,9;0,0063739
157821,7;0,0063739
157838,3;0,006382698
157854,9;0,006354839
157871,5;0,006348974
157888,3;0,006366569
157904,5;0,006403226
157921,1;0,00639003
157937,7;0,00639003
157954,2;0,006403226
157970,8;0,006400293
157987,4;0,006412024
158003,9;0,00642522
158020,6;0,006410557
158037,1;0,006409091
158053,6;0,006410557
158070,3;0,006417889
158086,8;0,006391496
158103,3;0,006391496
158119,9;0,006404692
158137,3;0,00641349
158153,4;0,006400293
158169,6;0,006392962
158186,3;0,00640176
158203,1;0,006398827
158219,9;0,00641349
158236,3;0,00640176
158252,4;0,00638563
158269,5;0,00638563
158285,6;0,0063739
158302,1;0,006365103
158318,7;0,006376833
158335,3;0,006382698
158351,8;0,006384164
158368,4;0,006403226
158385,6;0,006394428
158401,5;0,006388563
158418,1;0,006388563
158434,7;0,006378299
158451,5;0,006382698
158468,2;0,006356305
158484,4;0,006372434
158500,9;0,006372434
158517,5;0,006375367
158534,1;0,006382698
158550,6;0,006363636
158567,3;0,00636217
158583,8;0,006368035
158601,4;0,006357771
158616,9;0,006354839
158633,5;0,00635044
158650;0,006351906
158666,6;0,006334311
158683,2;0,006334311
158699,8;0,006307918
158716,3;0,006285924
158732,9;0,006288856
158749,5;0,006291789
158766;0,006291789
158782,6;0,006284458
158799,2;0,006303519
158815,7;0,00628739
158832,4;0,006300587
158848,9;0,006321114
158865,5;0,006337244
158882;0,006357771
158898,5;0,006369501
158915,8;0,006395895
158931,9;0,006416422
158948,3;0,006410557
158965,3;0,006392962
158981,4;0,00640176
158998,3;0,006407625
159014,8;0,006407625
159031,1;0,006422287
159047,6;0,006426686
159064,2;0,006432551
159080,8;0,006432551
159097,3;0,006434018
159113,9;0,006432551
159131,1;0,006428153
159147;0,006426686
159163,7;0,006431085
159180,2;0,00642522
159196,7;0,006414956
159214;0,006414956
159230,7;0,00640176
159246,5;0,006406159
159263;0,006395895
159280;0,006395895
159296,1;0,00640176
159312,7;0,006404692
159329,3;0,006382698
159345,8;0,006381232
159362,5;0,0063739
159379;0,0063739
159395,5;0,006363636
159412,1;0,006365103
159428,7;0,006382698
159445,2;0,006375367
159462,4;0,006356305
159479,2;0,006356305
159495;0,006379765
159512;0,0063739
159528,3;0,006368035
159545,2;0,006351906
159561,2;0,006351906
159578,3;0,006347507
159594,3;0,00631085
159611,8;0,006309384
159627,5;0,006306452
159644,3;0,006296188
159660,6;0,006306452
159677,2;0,006307918
159693,7;0,006302053
159710,3;0,006309384
159726,9;0,00629912
159743,4;0,006293255
159760;0,006302053
159776,6;0,006285924
159793,1;0,006319648
159809,7;0,006296188
159826,4;0,006303519
159842,8;0,006300587
159859,4;0,00631085
159876;0,006324047
159892,5;0,006340176
159909,1;0,006306452
159925,7;0,006307918
159942,3;0,006309384
159958,8;0,006306452
159975,4;0,006306452
159992,1;0,006282991
160008,5;0,006282991
160025,1;0,006282991
160041,7;0,006282991
160058,4;0,006290323
160074,8;0,006331379
160091,4;0,006359238
160108,6;0,006346041
160124,5;0,006346041
160141,4;0,006368035
160157,6;0,006357771
160174,4;0,006354839
160190,7;0,006344575
160207,9;0,006360704
160224,8;0,006357771
160240,8;0,006341642
160257,1;0,006360704
160273,6;0,006370968
160290,7;0,006370968
160306,7;0,006363636
160323,8;0,006366569
160340,2;0,00636217
160356,4;0,006347507
160373;0,006347507
160389,5;0,00633871
160406,1;0,006353373
160422,7;0,006353373
160440,1;0,006353373
160455,8;0,006378299
160472,4;0,006372434
160489;0,006384164
160505,5;0,006370968
160522,2;0,00638563
160538,6;0,00638563
160555,2;0,006407625
160571,8;0,006412024
160588,3;0,006404692
160604,9;0,006417889
160621,5;0,006417889
160638;0,006423754
160654,9;0,006426686
160671,6;0,006429619
160687,8;0,006442816
160713,4;0,006447214
160721;0,006456012
160737,4;0,006472141
160754;0,006472141
160771,4;0,006478006
160787,1;0,006478006
160803,7;0,006454546
160820,3;0,006458944
160836,8;0,006438416
160853,4;0,006422287
160870;0,006412024
160886,5;0,006395895
160903,1;0,006366569
160919,8;0,006360704
160936,2;0,00636217
160953,1;0,006363636
160969,4;0,006379765
160985,9;0,006384164
161003,1;0,006375367
161019,1;0,006375367
161036;0,006365103
161052,4;0,0063739
161068,8;0,0063739
161085,3;0,0063739
161101,9;0,006387097
161118,9;0,006394428
161135;0,00638563
161151,7;0,006376833
161168,2;0,006395895
161185,2;0,006376833
161201,3;0,006376833
161217,9;0,006388563
161234,8;0,006398827
161251,1;0,006409091
161267,8;0,006419355
161284,4;0,00642522
161300,7;0,00642522
161317,3;0,00643695
161333,8;0,006426686
161350,4;0,006435484
161367;0,006439883
161383,8;0,006442816
161400,1;0,006463343
161416,7;0,006456012
161433,2;0,006442816
161449,8;0,006454546
161466,4;0,006454546
161482,9;0,006438416
161499,8;0,006438416
161516,1;0,006457478
161532,6;0,006467742
161549,8;0,006491202
161565,8;0,006494135
161582,3;0,006494135
161599,2;0,006532258
161615,5;0,006532258
161632,1;0,00655132
161648,6;0,006554252
161665,3;0,006558651
161681,7;0,006549853
161698,3;0,006542522
161714,9;0,006524927
161731,9;0,006532258
161748;0,006532258
161764,6;0,006521994
161781,6;0,006521994
161797,7;0,00651173
161814,6;0,00651173
161830,8;0,006502933
161847,4;0,006497067
161864;0,0065
161880,5;0,006463343
161897,1;0,006485337
161913,7;0,006501467
161930,3;0,006501467
161946,8;0,006492669
161964,1;0,006492669
161979,9;0,006495601
161996,5;0,006482405
162013,1;0,006469208
162029,6;0,006475073
162046,5;0,006438416
162062,8;0,006435484
162079,3;0,006434018
162096;0,006431085
162112,5;0,006431085
162129;0,006429619
162145,6;0,00643695
162163,2;0,00643695
162178,7;0,006431085
162195,5;0,006434018
162212,5;0,006429619
162228,6;0,006429619
162245;0,006431085
162262;0,006412024
162278,1;0,006406159
162294,9;0,006403226
162311,3;0,006403226
162327,8;0,006403226
162344,7;0,006419355
162361;0,006416422
162377,5;0,006416422
162394,1;0,006412024
162410,7;0,006394428
162427,3;0,006403226
162444;0,006414956
162460,6;0,006414956
162476,9;0,00642522
162493,5;0,006406159
162510,7;0,006419355
162526,6;0,00641349
162543,5;0,00641349
162559,8;0,006395895
162576,4;0,006397361
162592,9;0,00640176
162609,5;0,006400293
162626;0,006404692
162642,6;0,006357771
162659,6;0,006347507
162676,1;0,006344575
162692,3;0,006346041
162709,8;0,00635044
162726,4;0,00635044
162742,9;0,006340176
162759,5;0,006332844
162776,1;0,006348974
162792,7;0,006378299
162809,2;0,006378299
162825,9;0,006391496
162842,4;0,006403226
162858,9;0,006397361
162876,5;0,006410557
162892;0,006392962
162908,6;0,006387097
162925,2;0,006376833
162942,3;0,006394428
162958,3;0,006388563
162975,3;0,006395895
162991,7;0,006395895
163008;0,00639003
163024,9;0,006400293
163041,5;0,006382698
163058,3;0,006391496
163074,3;0,006400293
163090,8;0,006403226
163107,9;0,006400293
163124,5;0,006397361
163140,9;0,006397361
163157,1;0,006403226
163174;0,006391496
163190,6;0,006394428
163206,8;0,006370968
163223,4;0,006370968
163240,2;0,006372434
163256,5;0,006365103
163273,1;0,006360704
163290,2;0,00635044
163306,2;0,006340176
163323,1;0,006357771
163339,3;0,006375367
163355,9;0,006395895
163372,5;0,006381232
163389;0,006379765
163405,7;0,006365103
163422,2;0,006376833
163438,7;0,00640176
163455,8;0,006403226
163471,9;0,006403226
163488,4;0,006412024
163505;0,006403226
163521,9;0,00639003
163538,1;0,006381232
163554,7;0,006388563
163571,3;0,00638563
163587,8;0,006372434
163605;0,006369501
163621;0,006381232
163637,5;0,006384164
163654,5;0,006397361
163671;0,006397361
163687,7;0,006382698
163704,4;0,006387097
163720,7;0,006410557
163736,9;0,006404692
163753,9;0,00640176
163770,1;0,006416422
163786,6;0,006432551
163803,2;0,006432551
163819,8;0,006414956
163836,3;0,006432551
163852,9;0,00641349
163869,5;0,006409091
163886;0,006409091
163902,7;0,00641349
163919,2;0,006432551
163936,1;0,006406159
163952,3;0,006404692
163969,2;0,006407625
163985,4;0,006404692
164002;0,006404692
164018,9;0,006419355
164035,1;0,006426686
164051,7;0,00642522
164068,3;0,006412024
164084,9;0,006417889
164101,4;0,006417889
164118,1;0,006422287
164134,5;0,006429619
164151,1;0,006428153
164168,1;0,006414956
164184,2;0,006414956
164200,9;0,006429619
164217,7;0,006420821
164233,9;0,006409091
164250,5;0,006422287
164267,1;0,006429619
164284,2;0,006434018
164300,4;0,006422287
164316,9;0,006439883
164334,1;0,006448681
164350;0,00643695
164366,7;0,006456012
164383,1;0,006456012
164399,6;0,006458944
164416,2;0,006491202
164433;0,006482405
164449,3;0,006472141
164466;0,006456012
164482,4;0,006444281
164499;0,006444281
164515,6;0,006441349
164532,1;0,006441349
164548,7;0,006429619
164565,3;0,006450147
164581,8;0,006438416
164598,4;0,006439883
164615,6;0,006451613
164631,5;0,006508798
164648,2;0,006507332
164664,7;0,006498534
164681,3;0,006482405
164698;0,006473607
164714,6;0,006483871
164731,2;0,006483871
164748;0,00647654
164764,6;0,006470675
164781,2;0,00643695
164798,3;0,006435484
164814,3;0,006445748
164831;0,006445748
164847,9;0,006439883
164864;0,006417889
164880,5;0,006416422
164897,4;0,006426686
164913,7;0,006426686
164930,2;0,006438416
164947;0,006448681
164963,3;0,006444281
164979,9;0,00646481
164996,6;0,006475073
165013;0,006475073
165029,6;0,006458944
165046,2;0,00643695
165062,8;0,006428153
165079,5;0,006410557
165096,3;0,006412024
165112,5;0,00641349
165129;0,006412024
165145,6;0,006412024
165162,2;0,006428153
165178,7;0,006429619
165195,4;0,006414956
165211,9;0,006473607
165228,4;0,00648827
165245;0,006479472
165261,5;0,006485337
165278,2;0,006495601
165294,7;0,006494135
165311,3;0,006486804
165328,3;0,006486804
165344,9;0,006483871
165361,1;0,006473607
165378,1;0,006478006
165394,2;0,006486804
165410,7;0,006486804
165427,2;0,006473607
165443,9;0,006473607
165461,3;0,006461877
165477,1;0,006441349
165494;0,006445748
165510,1;0,006451613
165527,3;0,006441349
165543,3;0,006438416
165559,8;0,006417889
165576,3;0,006416422
165593,1;0,006416422
165609,7;0,00640176
165626,2;0,006406159
165642,9;0,00640176
165659,7;0,006388563
165675,7;0,00640176
165692,3;0,006414956
165708,8;0,00642522
165725,4;0,006439883
165742;0,006439883
165758,6;0,006420821
165775,2;0,006410557
165791,7;0,006410557
165809;0,006400293
165824,8;0,006406159
165842;0,006420821
165858,8;0,006431085
165874,6;0,006432551
165891,1;0,006432551
165907,7;0,006439883
165924,2;0,006454546
165940,8;0,006461877
165957,4;0,00646481
165973,9;0,006492669
165990,5;0,006497067
166007,3;0,006483871
166023,6;0,006472141
166040,2;0,006448681
166057;0,006450147
166073,3;0,006463343
166089,9;0,006460411
166107;0,006450147
166123,2;0,006447214
166139,6;0,006428153
166156,1;0,006431085
166172,7;0,00643695
166189,3;0,00643695
166205,9;0,006429619
166222,8;0,006454546
166239;0,006456012
166256,1;0,006445748
166273;0,006445748
166288,7;0,006448681
166305,6;0,006438416
166321,8;0,006416422
166338,7;0,006416422
166355;0,006419355
166371,5;0,006417889
166388,2;0,006420821
166404,7;0,006391496
166421,2;0,006391496
166438,3;0,006378299
166454,5;0,006388563
166470,9;0,006376833
166487,6;0,006414956
166504;0,006420821
166520,8;0,006422287
166537,5;0,006417889
166553,8;0,006412024
166570,3;0,006412024
166586,9;0,006416422
166603,5;0,006416422
166620;0,00640176
166636,6;0,006397361
166653,2;0,006392962
166669,7;0,006388563
166686,3;0,006397361
166702,9;0,006388563
166719,4;0,006379765
166736,1;0,00638563
166752,5;0,006387097
166770,2;0,006407625
166786,2;0,006438416
166802,3;0,006422287
166819,3;0,00641349
166835,8;0,006429619
166852;0,006426686
166868,7;0,006426686
166885,1;0,00643695
166902;0,006482405
166918,3;0,006473607
166934,8;0,006495601
166951,4;0,006492669
166968,4;0,006501467
166984,5;0,006501467
167001,5;0,006492669
167017,7;0,00651173
167034,2;0,006501467
167050,8;0,006514663
167067,3;0,006514663
167083,9;0,006507332
167100,5;0,006508798
167117,1;0,006530792
167133,6;0,006510264
167150,3;0,006495601
167167;0,00651173
167183,3;0,006508798
167200,3;0,006508798
167216,4;0,006495601
167233;0,006495601
167249,6;0,006491202
167266,1;0,00648827
167283,7;0,006489736
167299,3;0,00651173
167315,8;0,006508798
167333,4;0,006492669
167349;0,006502933
167365,5;0,006517596
167382,1;0,006507332
167398,7;0,006513197
167415,6;0,00651173
167431,8;0,006510264
167448,4;0,006549853
167464,9;0,006546921
167481,5;0,006561584
167498,3;0,006552786
167514,8;0,00655132
167531,2;0,006565982
167547,8;0,006623167
167564,3;0,006615836
167580,9;0,006615836
167597,5;0,006623167
167614;0,006655425
167630,6;0,006662757
167647,2;0,006659824
167663,7;0,006659824
167680,3;0,006656892
167697,5;0,00666129
167713,4;0,00666129
167730;0,00666129
167747;0,006655425
167763,1;0,006642229
167779,7;0,006643695
167796,3;0,006636364
167812,8;0,006636364
167829,4;0,006634898
167846;0,006612903
167862,6;0,006621701
167879,1;0,006612903
167895,6;0,006589443
167912,2;0,006580645
167929;0,00657478
167945,5;0,00657478
167962,9;0,006568915
167978,5;0,006542522
167995,3;0,006542522
168012,5;0,006558651
168028,2;0,006573314
168044,8;0,006573314
168061,4;0,006587977
168078,1;0,006598241
168094,8;0,006589443
168111;0,006590909
168127,7;0,006604106
168144,2;0,006615836
168160,7;0,006601173
168178,1;0,006608504
168193,9;0,006608504
168210,4;0,006598241
168227;0,006604106
168243,6;0,006592376
168260,3;0,006595308
168276,7;0,006599707
168293,3;0,006576247
168309,8;0,006590909
168326,4;0,006595308
168343,2;0,006595308
168359,7;0,006602639
168376,5;0,006609971
168393,3;0,006608504
168409,2;0,006633431
168425,8;0,006633431
168442,4;0,006624633
168459;0,006602639
168475,7;0,006601173
168492;0,006599707
168508,6;0,006601173
168525,2;0,006599707
168541,8;0,006599707
168558,3;0,006604106
168574,9;0,006615836
168591,5;0,006620235
168608,3;0,006634898
168624,6;0,006634898
168641,1;0,006629033
168657,7;0,006640763
168674,3;0,00663783
168690,9;0,006651027
168707,4;0,006651027
168724,1;0,006642229
168740,6;0,006646628
168757,3;0,006634898
168773,7;0,006634898
168793,1;0,006608504
168806,8;0,006617302
168823,4;0,00661437
168840;0,006629033
168856,7;0,006629033
168873,2;0,006640763
168889,7;0,006645161
168906,6;0,006612903
168922,8;0,006595308
168939,4;0,006579179
168955,9;0,006573314
168972,5;0,006570381
168989,1;0,006576247
169005,6;0,006577712
169022,2;0,006570381
169038,7;0,006561584
169055,3;0,006564516
169072;0,006577712
169088,5;0,006555718
169105;0,006541056
169122,2;0,00656305
169138,8;0,006576247
169154,7;0,006573314
169171,5;0,006573314
169188,6;0,006577713
169204,4;0,006557185
169221,3;0,006532258
169237,5;0,006536657
169254,1;0,006536657
169270,7;0,006542522
169287,4;0,006530792
169304,3;0,006520528
169320,4;0,006514663
169336,9;0,006530792
169353,9;0,006505865
169370,1;0,006494135
169386,7;0,006480939
169403,3;0,006483871
169420,3;0,006519062
169436,4;0,006527859
169453,2;0,006508798
169469,5;0,006523461
169487,1;0,006510264
169502,8;0,006510264
169519,2;0,006502933
169535,8;0,006498534
169552,3;0,00647654
169568,9;0,006467742
169585,5;0,006467742
169602;0,006467742
169619,3;0,006447214
169635,2;0,006450147
169651,8;0,006450147
169668,4;0,006448681
169684,8;0,006419355
169701,4;0,006395895
169718,7;0,006398827
169734,6;0,006398827
169751,1;0,006403226
169767,7;0,006419355
169784,6;0,006426686
169803,7;0,006419355
169817,4;0,006423754
169834,3;0,006414956
169850,5;0,006414956
169867,1;0,006417889
169883,7;0,006419355
169900,4;0,006404692
169917;0,00643695
169933,3;0,006416422
169950,4;0,006414956
169966,5;0,006404692
169983;0,006404692
169999,9;0,006420821
170016,2;0,006431085
170032,8;0,006435484
170049,3;0,00643695
170065,9;0,006429619
170082,4;0,006412024
170099;0,006417889
170115,9;0,006431085
170132,2;0,006416422
170148,7;0,006432551
170165,3;0,006429619
170181,9;0,006439883
170198,4;0,006442816
170215;0,006450147
170231,5;0,006451613
170248,5;0,006466276
170264,8;0,006466276
170281,3;0,006467742
170298,4;0,006467742
170314,5;0,006469208
170331,3;0,006483871
170347,5;0,006472141
170364,1;0,006467742
170380,6;0,006475073
170397,2;0,006479472
170414,3;0,006457478
170430,4;0,006444281
170446,9;0,006460411
170463,5;0,006466276
170480,1;0,006454546
170497,1;0,006456012
170513,2;0,006444281
170530,5;0,006420821
170546,3;0,006416422
170562,9;0,006410557
170579,5;0,006414956
170596;0,006397361
170612,6;0,006397361
170629,2;0,006397361
170645,7;0,006417889
170662,3;0,006419355
170678,9;0,00642522
170695,4;0,00642522
170712;0,006406159
170728,8;0,006426686
170745,1;0,006435484
170761,8;0,006441349
170778,8;0,006441349
170795,2;0,006454546
170811,4;0,006438416
170832,7;0,006456012
170849,5;0,00643695
170865,8;0,006419355
170882,4;0,00642522
170898,9;0,00642522
170915,5;0,006419355
170932,1;0,006419355
170948,6;0,006391496
170965,2;0,00641349
170982,6;0,006397361
170998,4;0,00640176
171014,9;0,00640176
171031,5;0,006382698
171048,3;0,006388563
171065,3;0,006384164
171081,3;0,006382698
171097,7;0,006382698
171114,6;0,00638563
171130,9;0,006387097
171147,5;0,006392962
171164,7;0,006384164
171180,6;0,006384164
171197,1;0,006376833
171213,7;0,006372434
171230,5;0,006381232
171246,8;0,006376833
171263,9;0,006370968
171280;0,006379765
171297,4;0,006379765
171313,3;0,00636217
171329,7;0,006351906
171346,2;0,006346041
171363;0,006365103
171379,4;0,006365103
171395,9;0,006354839
171413,4;0,006309384
171429,1;0,006307918
171445,8;0,006300587
171462,4;0,006297654
171479,1;0,006285924
171495,8;0,006290323
171512,1;0,006296188
171528,5;0,006291789
171545,4;0,006291789
171561,6;0,00629912
171578,2;0,006306452
171594,8;0,006318182
171611,7;0,006313783
171628,5;0,006313783
171644,4;0,006304985
171661,3;0,006304985
171677,6;0,006318182
171694,1;0,006303519
171710,8;0,00629912
171727,3;0,00629912
171744,5;0,00627566
171760,4;0,006288856
171777;0,006288856
171793,5;0,006290323
171810,1;0,006288856
171827,2;0,006272727
171843,6;0,006284458
171859,8;0,006284458
171876,4;0,006285924
171892,9;0,006278593
171909,5;0,006272727
171926,3;0,006274194
171942,6;0,006285924
171959,3;0,006271261
171975,8;0,006280059
171992,3;0,00627566
172009,1;0,006253666
172025,6;0,006250733
172042,3;0,006271261
172058,6;0,00626393
172075,2;0,006260997
172091,7;0,006260997
172108,9;0,006234604
172125,4;0,006249267
172141,4;0,00626393
172158;0,006259531
172174,6;0,006255132
172191,1;0,006246334
172207,9;0,006237537
172224,3;0,006233138
172240,8;0,006239003
172257,4;0,006225807
172274;0,006214076
172290,5;0,006214076
172307,4;0,006240469
172323,7;0,00622434
172340,7;0,006214076
172357,4;0,006186217
172373,4;0,006187683
172390,3;0,006184751
172406,5;0,00618915
172423,1;0,006178886
172439,6;0,006192082
172456,5;0,006206745
172472,8;0,006197948
172489,5;0,006197948
172505,9;0,00622434
172522,8;0,006255132
172539;0,006271261
172555,8;0,006252199
172572,8;0,006246334
172588,9;0,006269795
172605,5;0,006253666
172621,9;0,006240469
172638,4;0,006241936
172655;0,006240469
172671,6;0,006237537
172688,2;0,006281525
172704,7;0,006272727
172721,3;0,006268329
172737,8;0,006272727
172754,9;0,006262464
172771;0,00623607
172787,5;0,00623607
172804,4;0,006266862
172820,9;0,006266862
172837,6;0,006266862
172853,8;0,006269795
172875,6;0,006256599
172886,9;0,006228739
172903,5;0,006221408
172920,1;0,00622434
172937,1;0,00623607
172953,4;0,00623607
172969,8;0,006218475
172986,3;0,006221408
173002,9;0,006231672
173019,7;0,006250733
173036,4;0,006247801
173052,6;0,006258064
173069,2;0,006250733
173085,7;0,006259531
173102,3;0,006252199
173118,9;0,006243402
173135,5;0,006233138
173152,1;0,006233138
173169;0,006239003
173185,1;0,006237537
173201,7;0,006237537
173218,3;0,006256599
173234,8;0,006244868
173251,4;0,006244868
173268;0,006244868
173284,5;0,006252199
173301,1;0,006237537
173317,7;0,006243402
173334,2;0,006249267
173350,8;0,006247801
173367,9;0,006239003
173384;0,00623607
173400,7;0,006253666
173417,1;0,006253666
173433,6;0,006256599
173450,2;0,006250733
173467,3;0,006246334
173483,3;0,006247801
173500,2;0,006233138
173516,5;0,006206745
173533,5;0,00622434
173549,6;0,006208211
173566,2;0,006171554
173583,3;0,006184751
173599,3;0,00618915
173616,1;0,006203813
173632,4;0,006197948
173649;0,00620088
173665,6;0,006217009
173682,1;0,00623607
173698,7;0,006241936
173715,3;0,006256599
173732,1;0,006269795
173748,4;0,006280059
173765;0,006296188
173781,6;0,006296188
173798,5;0,00631085
173814,7;0,006304985
173832,1;0,006296188
173848,8;0,006278593
173865,3;0,006288856
173882;0,006272727
173898,5;0,006280059
173915;0,006278593
173931,5;0,00627566
173948,4;0,006294722
173965,1;0,006322581
173981,2;0,006312317
173997,8;0,006312317
174014,3;0,006321114
174030,9;0,006312317
174048,1;0,006312317
174064;0,00631085
174080,6;0,00635044
174097,2;0,00635044
174113,7;0,006356305
174130,8;0,006356305
174146,9;0,006344575
174163,4;0,006332844
174180,3;0,006334311
174196,6;0,006340176
174213,2;0,006340176
174229,7;0,006360704
174246,3;0,006356305
174263;0,006353373
174279,5;0,006363636
174296;0,006357771
174312,5;0,006356305
174329,1;0,006356305
174345,9;0,006375367
174362,3;0,006363636
174379,1;0,006365103
174395,5;0,006348974
174412;0,006351906
174428,7;0,006370968
174445,5;0,0063739
174461,6;0,006359238
174478,2;0,006335777
174494,8;0,006329912
174511,8;0,006329912
174527,9;0,006325513
174544,5;0,006324047
174561,6;0,006341642
174577,6;0,006335777
174594,6;0,006312317
174610,8;0,006344575
174627,3;0,006359238
174643,9;0,006368035
174660,6;0,006382698
174677;0,006382698
174693,6;0,006382698
174710,1;0,006378299
174726,7;0,006343109
174743,3;0,006343109
174759,8;0,006344575
174776,5;0,006346041
174793;0,006331379
174813,4;0,006351906
174826,1;0,006337244
174842,7;0,006347507
174859,2;0,006357771
174875,8;0,006357771
174892,4;0,006370968
174908,9;0,006370968
174925,5;0,006404692
174942,2;0,006403226
174958,7;0,006407625
174975,6;0,006395895
174991,8;0,006387097
175008,3;0,006381232
175025,1;0,00639003
175041,5;0,006372434
175058;0,006379765
175075;0,006378299
175091,3;0,006366569
175107,8;0,006379765
175124,4;0,006375367
175140,9;0,006372434
175157,7;0,006357771
175174,2;0,006363636
175190,7;0,006366569
175207,1;0,006354839
175223,7;0,006359238
175240,3;0,006381232
175256,8;0,006400293
175273,4;0,006406159
175290;0,006419355
175306,9;0,006454546
175323,1;0,006454546
175339,8;0,006457478
175356,3;0,006438416
175372,8;0,006439883
175389,7;0,006439883
175405,9;0,006439883
175422,5;0,00642522
175439,5;0,006451613
175455,6;0,006460411
175472,2;0,006470675
175488,8;0,006470675
175505,3;0,006473607
175522;0,006483871
175539,1;0,006485337
175555,4;0,006485337
175571,6;0,006505865
175588,2;0,006485337
175604,7;0,00648827
175621,3;0,00648827
175638,5;0,0065
175654,5;0,006504399
175671,1;0,00648827
175687,7;0,006460411
175704,2;0,006461877
175720,8;0,006461877
175737,4;0,006467742
175754;0,006478006
175770,9;0,006463343
175787,1;0,006463343
175803,8;0,006463343
175820,7;0,00642522
175837,3;0,006431085
175853,9;0,006445748
175870,4;0,006441349
175887;0,00643695
175903,5;0,006435484
175920,1;0,006441349
175936,7;0,006422287
175953,2;0,006431085
175970,4;0,006410557
175986,6;0,006406159
176003,1;0,006381232
176019,5;0,006381232
176036,3;0,006388563
176052,8;0,006388563
176069,6;0,006410557
176085,8;0,006395895
176102,6;0,006394428
176119;0,006400293
176135,5;0,006397361
176152;0,006407625
176168,6;0,006404692
176185,2;0,006444281
176201,7;0,006420821
176218,4;0,006414956
176234,9;0,006412024
176251,4;0,006395895
176268,6;0,006395895
176284,6;0,006397361
176301,1;0,006398827
176318,2;0,006419355
176334,3;0,006429619
176350,8;0,006445748
176367,4;0,006445748
176384;0,006447214
176400,5;0,006473607
176417,3;0,006480938
176433,7;0,006470675
176450,7;0,00646481
176467,1;0,006482405
176483,6;0,006461877
176499,9;0,006469208
176516,5;0,006453079
176533,1;0,006453079
176549,6;0,006454546
176566,2;0,006445748
176582,8;0,006469208
176599,3;0,006485337
176615,9;0,006485337
176632,5;0,006492669
176649,7;0,006479472
176665,6;0,006479472
176682,2;0,006461877
176698,8;0,006460411
176715,5;0,006469208
176732,1;0,006448681
176748,7;0,006461877
176765,3;0,006463343
176781,7;0,006463343
176800,4;0,006463343
176817;0,006469208
176833,5;0,006472141
176850,1;0,006466276
176866,7;0,006470675
176883,2;0,006495601
176900,3;0,006491202
176916,4;0,006492669
176933;0,00646481
176949,5;0,006463343
176966,1;0,006473607
176982,8;0,006473607
176999,2;0,006494135
177016,5;0,006475073
177032,3;0,006466276
177048,9;0,006483871
177065,5;0,006483871
177082;0,006475073
177098,6;0,006480938
177115,2;0,006489736
177131,9;0,006489736
177148,3;0,006495601
177164,9;0,006482405
177181,4;0,006486804
177198;0,006495601
177214,6;0,006495601
177231,1;0,006497067
177247,7;0,006491202
177264,7;0,006501467
177280,9;0,006466276
177297,4;0,006483871
177314;0,006478006
177330,5;0,006478006
177347,3;0,006458944
177363,7;0,006447214
177380,4;0,006472141
177396,8;0,006480938
177413,4;0,006489736
177430;0,006469208
177446,5;0,006478006
177463,1;0,006441349
177480,2;0,006448681
177496,3;0,006456012
177512,8;0,006457478
177529,6;0,006431085
177545,9;0,006431085
177562,5;0,006419355
177579,2;0,006419355
177595,6;0,006429619
177612,2;0,006434018
177629;0,006429619
177645,3;0,006434018
177661,9;0,006447214
177679,1;0,006450147
177695;0,006466276
177711,6;0,006469208
177728,6;0,006463343
177744,7;0,006472141
177768;0,006467742
177777,8;0,006461877
177795;0,006482405
177811;0,006519062
177827,5;0,006513197
177844,2;0,006521994
177861,3;0,006521994
177877,3;0,006524927
177893,8;0,006524927
177910,4;0,006548387
177927,4;0,006541056
177943,9;0,006541056
177960,1;0,006541056
177976,6;0,006541056
177993,2;0,006570381
178009,8;0,006585044
178026,3;0,00653959
178042,9;0,006545455
178059,5;0,006545455
178076,3;0,006527859
178092,6;0,006530792
178109,2;0,006541056
178125,7;0,006535191
178142,7;0,006538123
178158,9;0,006538123
178175,5;0,006542522
178192;0,006505865
178208,6;0,006520528
178225,1;0,006520528
178241,7;0,006529326
178258,4;0,006529326
178275,4;0,006529326
178291,4;0,006546921
178308;0,006546921
178324,5;0,006536657
178341,1;0,00655132
178357,7;0,006535191
178374,7;0,006535191
178390,8;0,006504399
178407,5;0,006514663
178424,4;0,006519062
178440,6;0,006517596
178457,6;0,00651173
178473,7;0,006498534
178490,2;0,006494135
178506,8;0,006494135
178523,4;0,006504399
178540,4;0,00651173
178556,5;0,006502933
178573,1;0,00651173
178590;0,006533724
178606,2;0,006527859
178623,3;0,006501467
178639,3;0,006491202
178656,5;0,006513197
178672,4;0,006498534
178689,1;0,006502933
178705,6;0,006504399
178722,1;0,006498534
178738,7;0,006502933
178755,3;0,006502933
178771,8;0,00648827
178788,4;0,006491202
178805;0,00648827
178821,6;0,006502933
178838,1;0,006504399
178854,7;0,006507332
178871,2;0,006504399
178888;0,006498534
178904,4;0,006498534
178920,9;0,006542522
178937,5;0,006535191
178954,1;0,006541056
178970,9;0,006546921
178987,2;0,006546921
179004,1;0,006549853
179020,4;0,006564516
179037;0,006568915
179053,5;0,006564516
179070;0,006573314
179087,2;0,006576247
179103,4;0,006576247
179119,7;0,006585044
179136,3;0,006579179
179152,9;0,00658651
179170;0,006595308
179186;0,006595308
179202,6;0,006587977
179219,1;0,006589443
179235,7;0,006587977
179252,3;0,006587977
179268,8;0,006580645
179285,4;0,006577712
179302,3;0,006579179
179318,5;0,006590909
179335,1;0,006598241
179351,7;0,006605572
179368,2;0,006607038
179385;0,006611437
179401,4;0,006629033
179417,9;0,006604106
179434,5;0,006607038
179451,1;0,006617302
179467,8;0,006617302
179484,6;0,006643695
179500,8;0,006634898
179517,3;0,006634898
179533,9;0,006623167
179551;0,006620235
179567,8;0,006627566
179583,6;0,006631965
179600,2;0,006618768
179616,8;0,006604106
179633,3;0,006593842
179649,9;0,00658651
179666,4;0,00658651
179683;0,006598241
179699,6;0,006570381
179716,9;0,006579179
179733,4;0,006580645
179750;0,006580645
179766,6;0,006565982
179783,1;0,006561584
179799,8;0,00656305
179816,3;0,006555718
179832,8;0,006598241
179849,6;0,006587977
179866;0,006587977
179882,5;0,006590909
179899,1;0,006590909
179915,7;0,006571847
179932,4;0,006561584
179948,8;0,006552786
179965,4;0,006548387
179982;0,006545455
179998,9;0,006542522
180015,6;0,006607038
180031,6;0,006618768
180048,2;0,006605572
180064,8;0,006599707
180081,4;0,00656305
180098;0,006557185
180114,5;0,006554252
180131;0,006576247
180147,6;0,006576247
180164,2;0,00655132
180180,7;0,006577713
180197,3;0,006579179
180214,3;0,006585044
180230,9;0,006577713
180247,4;0,00657478
180263,6;0,006587977
180280,1;0,006585044
180296,7;0,006580645
180313,6;0,006585044
180329,8;0,006590909
180346,4;0,006590909
180363;0,006590909
180379,7;0,006605572
180396,2;0,006602639
180412,7;0,006617302
180429,3;0,006617302
180446;0,006612903
180462,4;0,006621701
180478,9;0,006631965
180495,5;0,006630498
180512,1;0,006642229
180528,6;0,006642229
180545,2;0,006651027
180561,8;0,006642229
180578,3;0,006607038
180594,9;0,006621701
180611,5;0,006634898
180628,4;0,006623167
180644,6;0,006618768
180661,2;0,006623167
180678,3;0,006623167
180694,3;0,006630498
180711;0,006639296
180727,4;0,006648094
180744,4;0,006648094
180764,5;0,006646628
180777,1;0,006658358
180793,7;0,006667156
180810,3;0,006667155
