73965,86;0,007585044
73987,7;0,007630499
74004,27;0,007630499
74020,88;0,007653959
74037,77;0,007703812
74054,34;0,007699414
74070,55;0,007708211
74087,1;0,007708211
74103,68;0,007697947
74120,24;0,007695015
74143,3;0,007687683
74159,88;0,007686217
74176,44;0,007708211
74193,11;0,007730206
74209,57;0,007714076
74226,13;0,007702346
74242,7;0,007727273
74259,84;0,007772727
74276,26;0,007778592
74308,3;0,0077522
74324,99;0,007749267
74342,01;0,007780059
74358,01;0,0077522
74374,76;0,007743402
74391,14;0,00772434
74407,71;0,007702346
74424,64;0,007699414
74440,84;0,007696481
74463,36;0,007695015
74480,02;0,007633431
74496,64;0,007659824
74513,3;0,007623167
74529,63;0,007623167
74546,57;0,007629032
74562,77;0,007605572
74579,53;0,007620235
74595,89;0,007620235
74617,69;0,007618769
74634,53;0,007604106
74651,42;0,00758651
74667,39;0,007599707
74683,96;0,007590909
74700,88;0,007605572
74717,42;0,007605572
74733,81;0,007609971
74750,23;0,007609971
74771,83;0,007611437
74788,84;0,007631965
74804,97;0,007629032
74821,52;0,007629032
74838,09;0,007627566
74854,66;0,007602639
74871,43;0,007595308
74887,9;0,007595308
74904,37;0,007621701
74927,86;0,007570381
74944,43;0,007571848
74961,21;0,007548387
74977,55;0,007521994
74994,29;0,007498534
75010,69;0,007498534
75029,38;0,007479472
75044,01;0,007513197
75060,39;0,007485337
75082,61;0,007482405
75099,2;0,007530792
75115,74;0,007555719
75132,64;0,007557185
75148,88;0,00755132
75165,45;0,00755132
75182,01;0,007533724
75198,58;0,007558651
75216,02;0,007557185
75238,22;0,007604106
75254,9;0,007612903
75271,64;0,007587977
75288,58;0,00757478
75304,49;0,007568915
75321,43;0,007583578
75337,77;0,00755132
75354,44;0,007543989
75370,76;0,007521994
75393,02;0,007520528
75409,59;0,007533724
75426,56;0,007548387
75443,33;0,00755132
75459,29;0,007587977
75475,85;0,007604106
75492,44;0,007582111
75508,98;0,00757478
75525,57;0,007557185
75548,69;0,007557185
75565,27;0,007571848
75582,52;0,007573314
75598,41;0,007602639
75615,73;0,007607038
75631,74;0,007595308
75648,09;0,007580645
75665,24;0,007576246
75681,35;0,007585044
75703,27;0,007567449
75719,84;0,007582111
75742,07;0,007608505
75754,04;0,007617302
75770,61;0,007612903
75787,17;0,007607038
75803,74;0,007624634
75820,3;0,007643695
75836,87;0,007640763
75858,23;0,007634897
75874,8;0,007630499
75891,37;0,007634897
75907,93;0,007629032
75924,5;0,00763783
75941,21;0,007636364
75958,6;0,007639296
75974,2;0,007604106
75974,2;0,007615836
75994,2;0,007633431
76011,26;0,007624634
76027,33;0,007624634
76043,9;0,007615836
76060,77;0,007587977
76077,2;0,007587977
76093,78;0,007576246
76110,18;0,007585044
76126,79;0,007579179
76150,08;0,007539589
76166,65;0,007530792
76183,54;0,007530792
76199,77;0,007541056
76216,45;0,007517595
76232,91;0,007543989
76249,48;0,007590909
76266,64;0,007618769
76282,66;0,007627566
76306,23;0,007639296
76322,98;0,007634897
76339,36;0,007639296
76355,93;0,007671554
76372,5;0,007678885
76389,06;0,007681818
76405,63;0,007690616
76422,2;0,007686217
76438,77;0,007680352
76459,91;0,00768915
76476,52;0,007680352
76493,05;0,007646628
76509,63;0,007665689
76526,66;0,007671554
76543,06;0,007668622
76560,16;0,007651026
76576,73;0,007624634
76592,61;0,007639296
76625,16;0,007634897
76641,73;0,007651026
76658,3;0,007633431
76675,05;0,007621701
76691,67;0,007621701
76708;0,007629032
76724,57;0,007629032
76741,13;0,007611437
76757,9;0,007611437
76781,67;0,007636364
76798,24;0,007630499
76814,8;0,007624634
76831,7;0,007621701
76847,94;0,007627566
76864,52;0,007633431
76881,14;0,007648094
76897,63;0,007648094
76914,34;0,007623167
76935,84;0,007624634
76952,4;0,007605572
76968,97;0,007592375
76986,23;0,007592375
77002,73;0,007510264
77018,71;0,007549854
77035,24;0,007549854
77051,8;0,007552786
77068,37;0,007548387
77090,77;0,00755132
77107,34;0,007535191
77123,91;0,007469208
77140,59;0,007485337
77157,29;0,007485337
77174,08;0,007495601
77190,18;0,007495601
77207,22;0,007519062
77223,31;0,007555719
77247,55;0,007618769
77264,15;0,007633431
77280,69;0,007620235
77297,25;0,007620235
77314,14;0,007595308
77330,38;0,007607038
77348,41;0,00758651
77364,98;0,007623167
77381,77;0,007618769
77404,39;0,007611437
77420,95;0,007611437
77437,77;0,007590909
77454,21;0,007552786
77470,66;0,007532258
77487,35;0,007514663
77504,75;0,007546921
77520,35;0,007545454
77536,92;0,007557185
77558,74;0,007549854
77575,41;0,007549854
77591,88;0,00756305
77608,89;0,007543989
77625,01;0,007532258
77641,91;0,007527859
77658,13;0,007507332
77675,04;0,00751173
77691,27;0,007514663
77714,8;0,007489736
77731,37;0,007524927
77747,93;0,007520528
77764,49;0,007510264
77781,13;0,007529326
77797,64;0,007505865
77814,2;0,007517595
77830,77;0,007517595
77847,34;0,007513197
77869,4;0,007542522
77886,15;0,007543989
77902,53;0,007564516
77919,1;0,007560117
77935,67;0,007560117
77952,23;0,007543989
77968,8;0,007557185
77985,45;0,007533724
78001,94;0,007535191
78023,14;0,007539589
78039,71;0,007539589
78056,27;0,007539589
78072,84;0,007552786
78090,81;0,007573314
78107,83;0,00756305
78124,04;0,007541056
78140,51;0,007533724
78157,3;0,007561584
78178,51;0,007579179
78195,17;0,00759824
78211,77;0,007630499
78228,24;0,007620235
78244,77;0,007579179
78261,38;0,007560117
78277,91;0,00756305
78294,48;0,007549854
78311,14;0,007549854
78333,41;0,007577713
78349,98;0,007570381
78366,88;0,007573314
78383,17;0,007573314
78399,68;0,007595308
78416,24;0,007577713
78432,81;0,00757478
78449,38;0,007568915
78465,97;0,007568915
78486,97;0,00759824
78503,66;0,007631965
78520,1;0,007659824
78536,71;0,007648094
78553,27;0,007651026
78569,81;0,007653959
78586,38;0,007653959
78602,99;0,007665689
78619,51;0,007655425
78640,95;0,007690616
78657,52;0,007693549
78674,09;0,007690616
78690,65;0,007706745
78707,43;0,007706745
78724,2;0,007706745
78740,35;0,007706745
78756,92;0,00771261
78773,93;0,007706745
78806,8;0,007702346
78823,38;0,00770088
78839,94;0,007715543
78856,57;0,007722874
78873,07;0,007733138
78889,84;0,007727273
78906,2;0,007702346
78922,77;0,007702346
78939,34;0,007702346
78960,25;0,007699414
78977,06;0,007683285
78993,39;0,007696481
79010,12;0,007717009
79026,52;0,00772434
79043,09;0,007727273
79059,66;0,007772727
79076,91;0,007772727
79092,81;0,007750733
79114,97;0,007758065
79131,54;0,007785924
79148,22;0,007806452
79164,66;0,007778592
79181,24;0,007758065
79198,08;0,007728739
79214,67;0,00768915
79230,99;0,007646628
79247,51;0,007623167
79268,84;0,007623167
79285,48;0,007620235
79301,98;0,007623167
79318,54;0,007634897
79335,11;0,007634897
79351,91;0,007642229
79368,24;0,007609971
79384,86;0,007642229
79401,38;0,007643695
79423,61;0,00764956
79440,18;0,007695015
79456,74;0,007709677
79473,31;0,007722874
79489,88;0,007734604
79506,48;0,007711144
79526,91;0,007706745
79539,57;0,007681818
79556,15;0,007681818
79577,5;0,007681818
79594,07;0,007639296
79610,64;0,007630499
79627,2;0,007634897
79643,8;0,007642229
79660,34;0,007653959
79676,91;0,007656891
79693,48;0,00766129
79710,04;0,007652493
79732,52;0,007636364
79749,08;0,007636364
79765,78;0,007664223
79782,23;0,007645161
79799,05;0,00763783
79815,34;0,007642229
79831,91;0,007583578
79848,48;0,007576246
79865,05;0,007612903
79886,8;0,007590909
79903,38;0,007590909
79919,95;0,007541056
79936,52;0,007513197
79953,21;0,007538123
79969,64;0,007543989
79986,24;0,007532258
80002,77;0,007557185
80019,52;0,007593842
80042,66;0,007611437
80059,23;0,007576246
80075,79;0,007555719
80092,36;0,007560117
80109,1;0,007555719
80125,95;0,007564516
80142,06;0,007543989
80158,63;0,007546921
80175,2;0,007546921
80198,4;0,007546921
80214,97;0,007530792
80231,91;0,007558651
80248,1;0,007558651
80265,93;0,007564516
80282,5;0,007596774
80299,06;0,00759824
80315,63;0,00759824
80332,2;0,007561584
80355,38;0,007539589
80371,99;0,007552786
80388,52;0,007552786
80405,53;0,007548387
80421,84;0,007554252
80439,05;0,007557185
80454,79;0,007557185
80471,35;0,007541056
80488,05;0,00757478
80510,62;0,007548387
80527,19;0,007555719
80544,15;0,007593842
80560,32;0,007601173
80576,89;0,00758651
80593,45;0,007599707
80610,02;0,007629032
80626,59;0,007631965
80643,64;0,007631965
80666,26;0,007631965
80682,82;0,007645161
80699,59;0,007621701
80715,96;0,00761437
80732,55;0,007642229
80749,37;0,007640763
80765,66;0,007645161
80782,23;0,007645161
80798,79;0,007645161
80821,28;0,007664223
80837,85;0,00764956
80854,42;0,00764956
80871,61;0,007620235
80887,55;0,007630499
80904,13;0,007634897
80921,38;0,007668622
80937,36;0,007668622
80953,99;0,007678886
80987,43;0,007714076
81003,99;0,007714076
81020,56;0,007705279
81037,13;0,007675953
81053,7;0,007693549
81070,59;0,007656891
81086,83;0,007648094
81103,39;0,007667155
81119,95;0,007645161
81142,13;0,00766129
81158,7;0,007658358
81175,63;0,007665689
81191,94;0,007665689
81208,41;0,007665689
81224,98;0,007684751
81241,54;0,007718475
81258,1;0,007702346
81274,67;0,007737537
81296,6;0,007744868
81313,17;0,007743402
81329,73;0,007739003
81346,3;0,007736071
81363,9;0,007736071
81380,1;0,007734604
81396;0,007734604
81412,57;0,007737537
81429,16;0,007747801
81451,45;0,00772434
81468,02;0,007734604
81485,2;0,007731671
81501,15;0,007741936
81518,2;0,007746334
81534,55;0,007746334
81550,88;0,007771261
81567,74;0,007796188
81583,98;0,007810851
81607,11;0,007824047
81623,69;0,007847507
81640,24;0,007847507
81656,8;0,007865103
81673,38;0,007865103
81689,94;0,007878299
81711,71;0,007837243
81724,09;0,007866569
81740,87;0,007875367
81764,34;0,007859237
81781,2;0,007856305
81797,48;0,007875367
81814,28;0,007881232
81830,61;0,007876833
81847,55;0,007884164
81864,25;0,007884164
81880,3;0,007859237
81896,88;0,007859237
81919,49;0,007903226
81936,42;0,007932551
81952,63;0,007900293
81969,3;0,007917888
81985,77;0,007917888
82002,33;0,007920821
82019,02;0,007802053
82035,73;0,007809384
82052,03;0,007821115
82073,84;0,007821115
82090,61;0,007812317
82106,98;0,007815249
82123,68;0,007834311
82140,12;0,007832845
82156,68;0,007826979
82173,25;0,007793255
82189,81;0,007777126
82206,39;0,007760997
82228,99;0,007765396
82245,81;0,007772727
82262,13;0,007747801
82278,73;0,007747801
82295,26;0,007755132
82311,83;0,007766862
82328,4;0,007790323
82345,01;0,007821115
82361,56;0,007841642
82385,02;0,007810851
82401,59;0,007832845
82418,51;0,007844575
82437,31;0,007848973
82454,63;0,007829912
82470,45;0,007818182
82487,01;0,007777126
82503,58;0,007762463
82520,89;0,007749267
82542,57;0,007743402
82559,25;0,007717009
82575,71;0,007717009
82592,28;0,007717009
82608,84;0,007684751
82625,41;0,007659824
82642,05;0,007608505
82658,55;0,007608505
82676,1;0,007607038
82699,46;0,007627566
82716,19;0,007631965
82732,59;0,007604106
82749,17;0,007592375
82765,73;0,007561584
82782,52;0,007561584
82798,88;0,007611437
82815,43;0,007607038
82832;0,007607038
82854,23;0,007617302
82870,8;0,007620235
82887,37;0,007612903
82904,07;0,007609971
82920,5;0,007609971
82937,66;0,00759824
82953,63;0,00759824
82970,2;0,0076261
82987,22;0,007690616
83010,36;0,007693549
83027,03;0,00767302
83043,49;0,007664223
83060,2;0,007651026
83076,63;0,007659824
83093,2;0,007651026
83109,85;0,007651026
83126,7;0,007645161
83142,9;0,007643695
83173,93;0,00766129
83190,49;0,00767302
83207,07;0,007722874
83223,63;0,007736071
83240,2;0,007717009
83256,76;0,007717009
83273,55;0,007702346
83289,89;0,007706745
83306,46;0,007715543
83328,92;0,007719941
83345,49;0,007711144
83362,06;0,007736071
83378,87;0,007709677
83395,19;0,00772434
83411,87;0,00772434
83428,83;0,007725806
83445,17;0,007709677
83461,45;0,007703812
83484,52;0,00768915
83501,09;0,007640763
83517,73;0,007621701
83534,23;0,007631965
83550,79;0,007631965
83567,36;0,007631965
83583,92;0,007623167
83600,48;0,007609971
83617,48;0,007611437
83639,47;0,007609971
83656,52;0,007605572
83672,61;0,007621701
83689,17;0,007642229
83705,74;0,007631965
83722,81;0,007618769
83738,87;0,007620235
83755,62;0,007620235
83772,02;0,007665689
83795,37;0,007659824
83812,47;0,007629032
83828,5;0,007636364
83845,06;0,007636364
83861,77;0,00766129
83878,2;0,00764956
83897,63;0,007653959
83914,23;0,007643695
83931,2;0,007642229
83953,52;0,007639296
83970,41;0,007633431
83986,65;0,007579179
84003,45;0,007579179
84019,78;0,007589443
84036,46;0,007599707
84052,91;0,007599707
84069,57;0,007617302
84086,05;0,007639296
84108,49;0,007664223
84125,3;0,007665689
84141,63;0,007648094
84158,2;0,007648094
84174,76;0,007671554
84191,33;0,007696481
84207,89;0,007699414
84225,05;0,007702346
84241,21;0,007706745
84263,61;0,00763783
84280,52;0,0076261
84296,74;0,007589443
84314,05;0,007579179
84330,22;0,007573314
84346,45;0,007576246
84363,02;0,00756305
84379,58;0,00756305
84396,15;0,007561584
84418,4;0,007573314
84434,97;0,007567449
84451,53;0,007557185
84468,59;0,007577713
84484,66;0,007604106
84501,32;0,007604106
84517,8;0,007590909
84534,37;0,007599707
84550,95;0,007599707
84574,59;0,007612903
84591,23;0,007621701
84607,72;0,0076261
84624,48;0,0076261
84643,93;0,00763783
84660,52;0,007648094
84677,06;0,0076261
84693,63;0,0076261
84710,2;0,007624634
84734,05;0,007636364
84750,62;0,007656891
84767,34;0,007678885
84783,75;0,007678885
84800,32;0,007655425
84816,89;0,007664223
84833,45;0,007667155
84850,02;0,00767302
84866,61;0,00767302
84888,89;0,00772434
84905,62;0,007731671
84922,03;0,0077522
84938,59;0,00768915
84955,57;0,007670088
84971,73;0,007711144
84988,29;0,007695015
85004,87;0,007695015
85021,45;0,007702346
85043,34;0,007699414
85059,91;0,007744868
85076,47;0,007746334
85093,63;0,007743402
85109,6;0,007743402
85126,16;0,007743402
85142,75;0,007744868
85159,3;0,007734604
85175,88;0,007737537
85198,2;0,007736071
85215,05;0,007758065
85231,35;0,007753666
85247,92;0,007762463
85264,55;0,0077522
85281,03;0,007760997
85297,6;0,007794722
85314,16;0,007802053
85330,84;0,007802053
85361,13;0,007797654
85377,7;0,007793255
85394,59;0,007762463
85410,83;0,007753666
85427,4;0,00776393
85443,96;0,007782991
85460,54;0,007782991
85477,09;0,007762463
85493,66;0,007796188
85513,82;0,007794722
85530,58;0,007809384
85547,2;0,007825513
85563,52;0,007856305
85580,91;0,007848973
85596,66;0,007844575
85613,22;0,007813783
85629,78;0,00785044
85646,71;0,007847507
85668,45;0,007847507
85685,2;0,007832845
85701,78;0,007804986
85718,14;0,007843109
85734,77;0,007843109
85751,27;0,007819648
85768,31;0,007772727
85784,87;0,007812317
85800,98;0,007809384
85822,73;0,00783871
85839,3;0,00783871
85856,12;0,007826979
85872,44;0,007806452
85889,13;0,007784457
85905,57;0,007793255
85922,13;0,00776393
85938,96;0,00776393
85955,52;0,007756598
85979,22;0,007804986
85995,78;0,007840176
86012,35;0,007846042
86029,45;0,007840176
86045,52;0,00783871
86062,84;0,007844575
86081,07;0,007780059
86097,64;0,007762463
86114,24;0,00778739
86136,7;0,007784457
86153,27;0,007804986
86169,85;0,007774194
86186,49;0,007758065
86203,52;0,007744868
86219,63;0,007744868
86236,19;0,00776393
86252,67;0,007755132
86269,55;0,007743402
86291,33;0,007758065
86308,73;0,00783871
86324,91;0,00783871
86341,02;0,007848973
86357,59;0,007857772
86374,38;0,007869502
86390,73;0,007844575
86407,3;0,00786217
86423,86;0,00786217
86446,63;0,007881232
86463,19;0,007870967
86480,21;0,007887097
86496,38;0,007907624
86512,89;0,007907624
86530,26;0,007914956
86546,64;0,007950147
86562,59;0,007912024
86579,34;0,007887097
86602,23;0,007881232
86618,8;0,007909091
86635,79;0,007919355
86651,96;0,007903226
86669,34;0,007903226
86685,06;0,007935484
86701,95;0,007964809
86718,98;0,007969208
86734,88;0,007956012
86755,32;0,007944281
86771,91;0,007944281
86788,45;0,007934018
86805,02;0,007912024
86821,59;0,0078739
86840,89;0,007866569
86857,57;0,007881232
86874,26;0,007881232
86890,63;0,007844575
86913,83;0,007822581
86930,4;0,007818182
86946,96;0,007835777
86963,62;0,00785044
86980,29;0,007832845
86996,66;0,007832845
87013,23;0,007835777
87029,8;0,007846042
87046,38;0,007794722
87069,77;0,007815249
87086,36;0,007844575
87102,91;0,007834311
87119,47;0,007831379
87136,04;0,007819648
87152,6;0,007819648
87169,17;0,007840176
87185,73;0,007834311
87202,31;0,007794722
87224,11;0,007794722
87241,34;0,007784457
87257,25;0,007793255
87273,81;0,007785924
87290,38;0,007744868
87306,95;0,00771261
87323,52;0,00770088
87340,22;0,007697947
87357,14;0,00768915
87379,05;0,007686217
87395,63;0,007696481
87412,19;0,00768915
87428,75;0,007717009
87445,53;0,007740469
87461,88;0,007721408
87478,46;0,007709677
87495,02;0,007683285
87511,58;0,007678885
87541,58;0,007684751
87558,69;0,007684751
87574,84;0,00764956
87591,28;0,00766129
87607,85;0,007680352
87625,28;0,007680352
87640,98;0,007668622
87657,55;0,007642229
87674,11;0,007675953
87696,13;0,007706745
87713,03;0,0077522
87729,6;0,007739003
87746,05;0,007719941
87763,01;0,007697947
87778,98;0,007687683
87795,54;0,007674487
87812,16;0,00767302
87828,66;0,007670088
87852,41;0,007671554
87868,98;0,007670088
87885,57;0,00767302
87902,14;0,007665689
87919,09;0,007684751
87935,28;0,007725806
87951,84;0,007695015
87968,4;0,007664223
87984,97;0,007658358
88008,04;0,007636364
88024,69;0,007652493
88041,55;0,007652493
88057,79;0,00766129
88074,31;0,007651026
88091,01;0,007633431
88107,59;0,007699414
88124,02;0,00767302
88140,63;0,00767302
88170,04;0,007683285
88186,78;0,007706745
88203,18;0,00768915
88220,21;0,007697947
88236,3;0,00767302
88252,98;0,007709677
88270,48;0,00770088
88287,2;0,007696481
88303,61;0,007667155
88326,96;0,007630499
88343,53;0,007630499
88360,1;0,007576246
88376,66;0,007576246
88393,23;0,007612903
88409,8;0,007608505
88426,37;0,007549854
88442,93;0,007552786
88459,49;0,007545454
88483,88;0,007508798
88500,55;0,007507332
88517,04;0,007491203
88536,34;0,007461877
88552,93;0,007460411
88569,5;0,007463343
88586,05;0,007460411
88603,22;0,007467742
88619,19;0,007467742
88642,35;0,007489736
88658,92;0,007494135
88675,48;0,007510264
88692,05;0,007505865
88708,62;0,0075
88725,18;0,00748827
88741,74;0,007504399
88758,37;0,007491203
88775,27;0,007505865
88796,49;0,007501466
88813,06;0,007472141
88829,63;0,007466276
88846,49;0,007442815
88862,77;0,007442815
88879,34;0,007423754
88896,2;0,007482405
88912,46;0,007495601
88929,03;0,007510264
88952,23;0,007498534
88968,85;0,007489736
88988,61;0,007439883
89005,17;0,007434017
89021,74;0,007434017
89038,3;0,007439883
89054,88;0,007454546
89071,45;0,007434017
89088,02;0,007441349
89109,3;0,007434017
89125,88;0,00744868
89142,44;0,007441349
89159,02;0,007429619
89175,58;0,007439883
89192,29;0,007458944
89208,71;0,007453079
89225,28;0,007461877
89241,84;0,007464809
89262,61;0,007470674
89279,46;0,007495601
89295,75;0,007510264
89312,43;0,007542522
89329,3;0,007536657
89345,45;0,00756305
89362,02;0,007579179
89378,63;0,007595308
89395,15;0,007565983
89417,73;0,007583578
89434,63;0,007580645
89450,86;0,007596774
89467,43;0,007607038
89484,02;0,007646628
89500,63;0,007646628
89517,13;0,007630499
89533,89;0,007630499
89550,59;0,007620235
89571,58;0,007643695
89588,15;0,007645161
89605,02;0,007645161
89621,8;0,007667155
89637,85;0,007695015
89654,52;0,007695015
89670,98;0,007631965
89687,66;0,007631965
89706,84;0,007612903
89730,23;0,007605572
89746,8;0,007656891
89763,37;0,007656891
89779,95;0,007655425
89796,5;0,00767302
89813,24;0,007658358
89830,2;0,007634897
89846,26;0,007634897
89862,77;0,007620235
89879,34;0,007633431
89904,49;0,007665689
89921,06;0,007684751
89937,63;0,007684751
89954,2;0,007671554
89970,77;0,007655425
89987,33;0,007655425
90003,9;0,00766129
90020,46;0,007653959
90037,03;0,00767302
90059,79;0,007678886
90076,97;0,007662757
90092,93;0,007648094
90109,68;0,007652493
90126,45;0,00764956
90142,63;0,007680352
90159,2;0,007634897
90175,76;0,007634897
90192,33;0,007645161
90215,16;0,007683285
90232,25;0,007722874
90248,35;0,007730206
90264,86;0,007730206
90281,42;0,007702346
90297,99;0,007695015
90314,56;0,007715543
90331,13;0,007739003
90347,7;0,007772727
90369,95;0,007812317
90386,69;0,007813783
90403,69;0,007796188
90419,65;0,007829912
90440,36;0,007822581
90453,01;0,007846042
90469,34;0,007851906
90485,91;0,007857772
90502,48;0,007860704
90524,12;0,007859237
90541,08;0,007869502
90557,25;0,00786217
90574,44;0,007887097
90590,38;0,007922287
90606,95;0,007919355
90623,52;0,007916423
90640,09;0,007903226
90656,65;0,007894428
90679,48;0,007870967
90696,05;0,007884164
90712,62;0,007851906
90729,19;0,007851906
90745,75;0,007857772
90762,32;0,007910557
90778,88;0,007935484
90795,5;0,007929618
90812,02;0,007957478
90835,58;0,007986804
90852,26;0,008020528
90868,71;0,008024927
90885,54;0,008024927
90901,87;0,008008798
90918,41;0,008007332
90935,27;0,008016129
90951,55;0,008041056
90992,87;0,008036657
91014,18;0,008036657
91030,8;0,008014663
91047,33;0,008
91064,09;0,008002932
91080,46;0,008005865
91097,02;0,008005865
91116,81;0,008036657
91133,39;0,008020528
91150,39;0,008026393
91172,93;0,008029326
91189,66;0,008001466
91206,63;0,007997068
91222,63;0,007997068
91239,2;0,007994135
91255,77;0,007982405
91272,33;0,007982405
91288,9;0,007976539
91305,47;0,007973607
91328,4;0,007923754
91344,98;0,00791349
91361,53;0,007916423
91378,52;0,00790176
91394,67;0,00790176
91411,24;0,00791349
91427,8;0,007894428
91444,7;0,007900293
91461,27;0,007892962
91484,21;0,007840176
91500,95;0,007869502
91517,35;0,00788563
91534,5;0,00788563
91550,47;0,007891496
91567,04;0,007878299
91583,62;0,007876833
91600,18;0,007876833
91616,76;0,007854839
91645,63;0,007844575
91662,2;0,007869502
91678,77;0,007878299
91695,66;0,007878299
91711,89;0,007878299
91728,45;0,007882698
91745,02;0,007872434
91761,59;0,007831379
91778,16;0,007831379
91810,68;0,007813783
91827,25;0,007837243
91843,81;0,007846042
91860,38;0,007881232
91876,95;0,007881232
91893,69;0,007897361
91910,08;0,007897361
91926,64;0,007939883
91943,21;0,007909091
91966,68;0,007912024
91983,26;0,007912024
91999,89;0,007948681
92016,59;0,007938417
92033,45;0,007956012
92049,52;0,007945748
92066,09;0,007989736
92082,65;0,007992669
92099,22;0,008019062
92121,86;0,008017596
92138,43;0,007998534
92155;0,008026393
92171,56;0,008027859
92188,13;0,008004399
92205,22;0,008027859
92221,26;0,008036657
92237,83;0,00803519
92254,52;0,008027859
92277,72;0,008055719
92295,06;0,008057185
92310,98;0,008071847
92327,47;0,008071847
92344,01;0,008016129
92362,24;0,008026393
92379,02;0,00803959
92395,38;0,008042522
92411,95;0,008041056
92436,64;0,008054253
92453,74;0,008082111
92469,78;0,008087977
92486,34;0,008087977
92502,91;0,008096774
92519,48;0,008096774
92536,35;0,008109971
92869,69;0,007969208
92886,26;0,007954545
92902,83;0,007973607
92920,09;0,007967742
92936,15;0,007964809
92952,52;0,007978006
92969,09;0,007954545
92985,66;0,007934018
93002,23;0,007934018
93018,79;0,007957478
93035,36;0,007954545
93051,92;0,007963344
93068,49;0,007975074
93085,06;0,007950147
93102,15;0,007939883
93118,2;0,00792522
93135,04;0,007926687
93151,32;0,007934018
93168,11;0,007909091
93184,86;0,007887097
93201,02;0,007887097
93217,59;0,007882698
93234,16;0,007944281
93250,73;0,007909091
93267,29;0,007900293
93283,86;0,007882698
93300,42;0,007868036
93316,99;0,007824047
93333,76;0,007816716
93350,32;0,007794722
93366,7;0,007794722
93383,32;0,007778592
93399,83;0,007739003
93416,39;0,007741936
93433,06;0,00772434
93449,52;0,007739003
93466,1;0,007756598
93482,67;0,007756598
93499,23;0,007741936
93516,2;0,007733138
93532,88;0,007690616
93549,72;0,007690616
93565,95;0,007658358
93582,07;0,007607038
93598,63;0,007599707
93615,2;0,00763783
93632,23;0,007640763
93648,33;0,007640763
93665,35;0,007667155
93681,79;0,007667155
93698,03;0,007652493
93714,77;0,007681818
93731,56;0,00770088
93747,73;0,00770088
93764,29;0,007740469
93780,86;0,007768328
93797,45;0,007768328
93813,99;0,007819648
93830,56;0,007819648
93847,2;0,007865103
93863,73;0,007876833
93880,27;0,007865103
93896,84;0,007853373
93913,77;0,007854839
93929,96;0,00792522
93946,52;0,007939883
93963,09;0,007939883
93979,66;0,007939883
93996,23;0,007923754
94013,02;0,007923754
94029,52;0,007926687
94046,78;0,007907624
94062,49;0,007923754
94079,05;0,007935484
94096,01;0,007963344
94113,12;0,007967742
94128,96;0,007973607
94145,41;0,007954545
94161,91;0,007954545
94178,46;0,007989736
94195,59;0,007992669
94211,59;0,007975074
94228,17;0,007939883
94245;0,00792522
94261,59;0,007916423
94277,86;0,007916423
94294,44;0,007903226
94310,99;0,007907624
94327,56;0,007887097
94344,13;0,007895894
94360,7;0,007895894
94377,26;0,00788563
94393,82;0,007898827
94410,39;0,007898827
94427,41;0,007891496
94443,52;0,007926687
94460,09;0,007929618
94476,92;0,007912024
94493,23;0,007894428
94509,79;0,007907624
94526,36;0,007912024
94542,95;0,007900293
94560,01;0,00790176
94576,05;0,007898827
94592,91;0,007898827
94609,2;0,007923754
94625,98;0,007978006
94642,33;0,007967742
94658,89;0,007978006
94675,46;0,007972141
94692,02;0,008043989
94708,69;0,008095308
94725,66;0,00806305
94741,72;0,008071847
94758,35;0,008058651
94775,6;0,008049853
94791,49;0,008049853
94808,95;0,008048387
94824,56;0,008057185
94841,78;0,008057185
94857,69;0,008004399
94874,75;0,007988269
94890,82;0,007972141
94907,39;0,007979472
94923,96;0,007979472
94940,53;0,007926687
94957,54;0,00792522
94973,7;0,007923754
94990,23;0,00793695
95006,79;0,007942815
95023,59;0,007939883
95039,92;0,007922287
95057,04;0,007904693
95073,06;0,007947214
95089,63;0,008026393
95106,31;0,008073314
95122,76;0,008073314
95139,33;0,008083578
95155,89;0,008109971
95172,46;0,008115835
95189,06;0,008127566
95205,59;0,008134898
95222,16;0,008095308
95238,73;0,00808651
95255,41;0,008093841
95271,89;0,008112904
95288,44;0,008112904
95305,17;0,00809091
95321,56;0,0081261
95338,13;0,008149561
95354,69;0,008159824
95371,26;0,008155425
95387,94;0,008184751
95404,4;0,008184751
95420,97;0,008196481
95437,52;0,008203812
95454,09;0,008206745
95470,66;0,008217009
95487,23;0,008233138
95503,88;0,00823607
95520,35;0,008262464
95537,31;0,008291789
95554,2;0,008297654
95570,06;0,008285924
95586,91;0,008300587
95603,2;0,008300587
95619,76;0,008281525
95636,32;0,008332845
95652,89;0,008306452
95669,45;0,008297654
95686,04;0,008334311
95702,59;0,008315249
95719,27;0,008315249
95735,75;0,008302053
95752,63;0,008253666
95768,86;0,008231672
95785,42;0,008205279
95801,99;0,008205279
95818,57;0,008142229
95835,13;0,008101173
95851,7;0,008082111
95868,26;0,008054253
95885,32;0,008083578
95901,39;0,008083578
95918,09;0,008087977
95934,52;0,008093841
95951,12;0,008043989
95967,67;0,00803519
95984,22;0,008027859
96000,8;0,008076247
96017,36;0,008101173
96033,94;0,008070381
96050,51;0,008036657
96067,13;0,008042522
96083,66;0,008049853
96100,2;0,008054253
96117,12;0,008048387
96133,33;0,008077713
96150,05;0,008096774
96167,05;0,00810264
96183,28;0,008112904
96199,61;0,008117302
96216,2;0,008105572
96232,74;0,00811437
96249,3;0,008148094
96265,87;0,008149561
96282,44;0,008184751
96299,13;0,008173021
96315,64;0,008178886
96332,32;0,008231672
96349,6;0,008211143
96365,88;0,008199413
96382,16;0,008193549
96398,39;0,008206745
96414,97;0,008208212
96431,63;0,008219942
96448,19;0,008186217
96464,66;0,008181818
96481,31;0,008192082
96497,8;0,008192082
96514,45;0,008211144
96531,31;0,008209677
96547,49;0,008222874
96564,05;0,008222874
96581,42;0,008221407
96597,42;0,00823607
96613,77;0,008177419
96636,47;0,008153959
96646,89;0,008161291
96663,46;0,008148094
96680,02;0,0081261
96696,59;0,008127566
96713,16;0,00811437
96729,73;0,00811437
96746,41;0,008170088
96762,95;0,008168622
96779,91;0,008180352
96795,99;0,008190616
96812,56;0,008189149
96829,13;0,008181818
96845,7;0,008206745
96862,26;0,008219942
96878,87;0,008231672
96895,39;0,008435484
96912,24;0,008460411
96928,84;0,008478006
96945,17;0,008527859
96961,73;0,008552786
96978,27;0,008793255
96994,8;0,008854839
97012,12;0,008891496
97028,08;0,008938417
97044,49;0,008938417
97061,05;0,009143695
97077,64;0,009143695
97094,7;0,009645161
97110,76;0,00982698
97127,33;0,00985044
97143,89;0,009958944
97160,46;0,01001906
97177,23;0,01001906
97193,59;0,01027419
97210,16;0,01040323
97227,2;0,01041789
97243,3;0,01045601
97259,86;0,01043842
97276,43;0,01043842
97293,09;0,01043842
97309,56;0,01083284
97326,13;0,01086364
97343,16;0,01092962
97359,48;0,01093402
97375,98;0,01092669
97392,41;0,01092082
97408,96;0,0108827
97425,86;0,0108607
97442,63;0,0108695
97458,81;0,01099414
97475,23;0,01112903
97491,79;0,01148827
97508,36;0,01147507
97524,92;0,01147507
97541,49;0,01145015
97558,51;0,01140029
97574,64;0,01142229
97591,54;0,01143108
97607,76;0,01144868
97624,33;0,01141642
97640,89;0,01141642
97657,45;0,01174927
97674,14;0,01195894
97690,59;0,01195894
97707,16;0,01201173
97723,73;0,01202053
97740,9;0,01201613
97756,86;0,01199853
97773,42;0,01201026
97789,99;0,01204252
97806,55;0,01207771
97823,23;0,01207771
97839,92;0,01220381
97856,72;0,01226393
97872,83;0,01239883
97889,56;0,01245748
97905,96;0,01255279
97922,52;0,01255279
97939,09;0,01257771
97955,66;0,01258798
97972,23;0,01259971
97989,5;0,0126349
98005,36;0,01265542
98022,02;0,0126305
98039,03;0,01264369
98055,06;0,01265103
98071,63;0,01264369
98088,36;0,01264076
98104,76;0,0126217
98121,72;0,0126129
98138,66;0,01256452
98154,46;0,01257331
98171,71;0,01257331
98187,59;0,01260411
98204,78;0,01261584
98220,74;0,0126305
98237,29;0,01265103
98253,86;0,01265103
98271,24;0,01267009
98286,99;0,01268622
98303,55;0,01278006
98320,13;0,01278299
98336,95;0,01280938
98353,26;0,01281818
98370,35;0,01290323
98386,39;0,01296041
98403,05;0,01297801
98419,72;0,01299707
98436,09;0,01301613
98452,66;0,01304399
98469,23;0,01304985
98485,81;0,01304985
98502,36;0,01306745
98519,18;0,01305718
98535,49;0,01308944
98552,35;0,01311437
98568,63;0,01311144
98585,19;0,01310997
98601,76;0,01312757
98618,63;0,01314809
98635,61;0,01314956
98651,47;0,01314956
98668,59;0,01315836
98684,6;0,01316569
98701,16;0,01319355
98718,07;0,01315836
98734,3;0,0131173
98751,41;0,01311877
98767,57;0,01312903
98784,01;0,01314956
98801,17;0,01314076
98817,17;0,01315836
98834,67;0,01311437
98850,77;0,01314516
98866,84;0,01312023
98883,4;0,01312757
98899,96;0,01289296
98916,53;0,01289296
98933,27;0,01289883
98949,7;0,01285777
98966,25;0,01287683
98982,8;0,01268035
98999,94;0,01247654
99015,92;0,01248974
99032,49;0,01236657
99049,16;0,01223167
99065,69;0,01211584
99082,22;0,0117346
99099,14;0,0117346
99115,33;0,0116217
99131,89;0,0116217
99148,46;0,01147654
99165,12;0,01124047
99181,59;0,01096481
99198,16;0,0108871
99214,73;0,01088123
99231,29;0,01085777
99247,88;0,01086804
99264,43;0,0108695
99280,99;0,01088123
99297,68;0,01067155
99314,13;0,01047214
99330,75;0,01041496
99347,26;0,01040176
99364,04;0,01043548
99380,39;0,01044868
99396,96;0,01047507
99413,53;0,01047067
99430,09;0,01047801
99446,66;0,01046774
99463,91;0,01031672
99479,98;0,01012317
99496,36;0,009895895
99512,92;0,009895895
99529,49;0,009882698
99546,06;0,009892962
99562,63;0,009917889
99579,2;0,009920822
99595,76;0,009920822
99612,33;0,009878299
99628,89;0,009853372
99646,18;0,009662757
99662,05;0,009557185
99678,59;0,009346041
99695,16;0,009313783
99711,77;0,00931525
99728,3;0,009293255
99744,86;0,009293255
99761,43;0,009297654
99778,41;0,009290323
99794,55;0,009269794
99811,43;0,009259531
99827,69;0,009082112
99844,34;0,009082112
99860,83;0,008985337
99877,57;0,008944281
99894,05;0,008944281
99911,07;0,008832845
99927,17;0,008810851
99943,77;0,008803519
99960,23;0,008803519
99976,79;0,008803519
99993,35;0,008760997
100009,9;0,008746334
100026,8;0,00877566
100043,2;0,008768328
100060,5;0,008780058
100076,2;0,008796188
100092,8;0,008790323
100109,3;0,008821115
100125,9;0,008821115
100142,5;0,0088739
100159;0,008834311
100175,6;0,008803519
100192,2;0,008791788
100208,7;0,008772727
100225,5;0,008733138
100242,4;0,008715543
100258,4;0,00871261
100275,9;0,008652492
100291,8;0,008593841
100308,2;0,00852346
100324,7;0,008482405
100342;0,008420821
100365,6;0,008375366
100374,4;0,008375366
100391,5;0,008326979
100408,1;0,008326979
100424,5;0,008255132
100440,7;0,008175953
100457,2;0,008158358
100474,1;0,008162756
100490,4;0,008167155
100507;0,008127566
100523,5;0,008127566
100540,1;0,008133431
100556,6;0,008104105
100573,2;0,008104105
100589,8;0,008092375
100606,3;0,008083578
100623,3;0,008068915
100639,5;0,008068915
100656,1;0,008067449
100672,8;0,008073314
100689,2;0,008052786
100705,7;0,00803519
100723;0,00803519
100738,9;0,008041056
100755,4;0,008048387
100772;0,00803519
100789;0,008016129
100805,1;0,008014663
100821,9;0,008068915
100838,3;0,008082111
100854,8;0,00807478
100871,6;0,00807478
100888;0,008046921
100904,7;0,008048387
100921,3;0,008098241
100938,5;0,00810264
100954,2;0,008101173
100970,8;0,008065983
100987,6;0,008079179
101004,6;0,008080645
101020,5;0,008080645
101037,3;0,008087977
101053,6;0,008096774
101070,6;0,008077713
101087;0,008067449
101103,5;0,008079179
101119,9;0,008071847
101136,5;0,00810264
101153;0,008101173
101169,6;0,008105572
101187;0,008096774
101202,7;0,008085044
101219,3;0,00810264
101235,9;0,008080645
101252,4;0,008082111
101269;0,008073314
101285,6;0,008046921
101303,3;0,008038123
101318,9;0,008013196
101335,3;0,00801173
101351,9;0,008010264
101368,7;0,008010264
101385;0,007979472
101401,5;0,007997068
101418,1;0,007992669
101435;0,007992669
101451,2;0,007978006
101468,1;0,00802346
101484,4;0,00802346
101502;0,008017595
101517,5;0,008026393
101534,1;0,008017595
101550,7;0,007992669
101567,2;0,007992669
101583,8;0,007998534
101600,8;0,007997068
101617,3;0,007948681
101633,8;0,007948681
101650;0,00793695
101666,9;0,00793695
101683,2;0,007941349
101700,2;0,007983871
101716,3;0,007980938
101733;0,007947214
101749,4;0,007953079
101766,1;0,007973607
101782,6;0,007963344
101799,1;0,007980938
101815,7;0,007983871
101832,3;0,007983871
101849,5;0,007964809
101865,4;0,007978006
101882;0,007995601
101898,9;0,007995601
101915,1;0,007975074
101931,7;0,008001466
101948,5;0,008002932
101964,8;0,007992669
101981,5;0,007986804
101997,9;0,007995601
102014,8;0,007995601
102031,1;0,007973607
102048;0,007992669
102064,5;0,007979472
102080,8;0,007979472
102097,9;0,008002932
102097,9;0,00802346
102117,9;0,008016129
102134,5;0,008049853
102151,1;0,008055719
102167,6;0,008079179
102184,2;0,008070381
102200,8;0,008085044
102217,3;0,008095308
102234;0,008085044
102250,5;0,008093841
102267;0,008130498
102283,6;0,008117302
102300,2;0,008131965
102317,3;0,008149561
102333,4;0,008149561
102349,9;0,008131965
102366,4;0,008111437
102383,8;0,008124634
102399,6;0,008152492
102416,1;0,008152492
102432,7;0,008149561
102449,9;0,008155425
102465,8;0,008127566
102482,9;0,008121701
102499;0,008121701
102515,5;0,008134898
102532,1;0,008134898
102548,8;0,008152492
102565,2;0,008140762
102582,4;0,008158358
102598,4;0,008133431
102614,9;0,008146628
102631,6;0,008131965
102648,4;0,008118768
102664,8;0,00813783
102681,2;0,008121701
102697,8;0,008079179
102714,3;0,008087977
102730,9;0,008093841
102747,5;0,008098241
102764;0,008093841
102781;0,008085044
102797,2;0,008077713
102813,8;0,008077713
102830,3;0,008117302
102846,9;0,008108504
102863,4;0,008139296
102880,2;0,008143695
102896,7;0,008131965
102913,1;0,008143695
102929,7;0,008142229
102946,3;0,008142229
102962,8;0,008142229
102980,5;0,008134898
102997,1;0,008142229
103013,6;0,008124634
103030,2;0,008101173
103046,9;0,00810264
103063,3;0,008111437
103079,9;0,00813783
103096,5;0,008140762
103113,1;0,008140762
103129,6;0,008162756
103146,6;0,008168622
103162,9;0,008170088
103179,5;0,008206745
103195,9;0,008189149
103212,5;0,008186217
103229;0,008199413
103245,6;0,008183285
103262,4;0,008174486
103278,7;0,008214076
103295,7;0,008247801
103311,8;0,008247801
103328,4;0,008237537
103345;0,008218476
103361,5;0,008211143
103378,3;0,008203812
103395,7;0,008168622
103411,2;0,008153959
103427,8;0,008153959
103444,4;0,008129032
103460,9;0,008158358
103477,5;0,008161291
103494,1;0,008214076
103510,7;0,008197947
103527,7;0,00820088
103543,8;0,00820088
103560,3;0,008187683
103577,3;0,008199413
103593,7;0,008192082
103610;0,008181818
103626,6;0,008171555
103643,2;0,008165689
103660;0,008197947
103676,3;0,00821261
103692,9;0,008208212
103709,6;0,00820088
103726,1;0,008175953
103742,8;0,008173021
103759,1;0,008173021
103776,3;0,008173021
103792,5;0,008167155
103809;0,008133431
103825,7;0,008130498
103842;0,008130498
103858,5;0,008142229
103875,1;0,008146628
103891,7;0,008158358
103913,9;0,008161291
103924,8;0,008161291
103941,4;0,00813783
103958;0,008148094
103974,8;0,008159824
103991,1;0,008162756
104007,6;0,008149561
104024,2;0,008111437
104040,9;0,008121701
104057,3;0,008121701
104073,9;0,008098241
104090,5;0,008083578
104107,3;0,008082111
104124;0,008089443
104140,3;0,008077713
104156,7;0,008070381
104173,4;0,008076247
104189,9;0,008064516
104206,4;0,00803519
104223;0,008054253
104239,7;0,008046921
104256,3;0,008038123
104272,7;0,008038123
104289,3;0,008043989
104305,9;0,008032259
104322,4;0,008016129
104339;0,00801173
104355,6;0,008024927
104372,1;0,008017595
104388,7;0,007989736
104405,4;0,007989736
104421,8;0,007989736
104438,4;0,007983871
104455,3;0,007973607
104471,8;0,007944281
104488,5;0,007942815
104504,6;0,007942815
104521,2;0,007939883
104537,8;0,007928153
104554,5;0,007932551
104570,9;0,00790176
104587,7;0,007868036
104604;0,007882698
104620,6;0,00785044
104637,2;0,007866569
104653,9;0,007821115
104670,3;0,007804986
104687,4;0,007803519
104704;0,007803519
104720;0,007807918
104736,6;0,007834311
104753,8;0,007848973
104769,7;0,00786217
104786,5;0,007860704
104802,8;0,007894428
104819,4;0,007884164
104836;0,007887097
104853;0,007887097
104869,1;0,007875367
104885,7;0,007875367
104902,7;0,007875367
104918,8;0,007869502
104935,4;0,007860704
104951,9;0,007868036
104968,7;0,007857772
104985,4;0,007843109
105001,6;0,007825513
105018,5;0,007825513
105034,8;0,007825513
105051,3;0,00785044
105067,9;0,00785044
105085;0,007841642
105101,3;0,007829912
105117,6;0,007807918
105134,3;0,007810851
105150,9;0,007806452
105167,4;0,007791789
105183,9;0,007812317
105200,4;0,00785044
105217;0,007851906
105233,6;0,007851906
105250,1;0,007876833
105266,7;0,007854839
105283,3;0,007843109
105299,9;0,007782992
105316,5;0,007766862
105333;0,007759531
105349,5;0,007760997
105366,3;0,007810851
105382,7;0,007791789
105399,2;0,007796188
105415,8;0,00779912
105432,4;0,007822581
105448,9;0,007804986
105465,5;0,007777126
105482,1;0,007743402
105498,6;0,007728739
105515,2;0,007728739
105531,8;0,007747801
105548,3;0,007753666
105564,9;0,007753666
105581,5;0,007725806
105598;0,007747801
105614,8;0,007759531
105631,2;0,007759531
105647,9;0,007771261
105664,3;0,007753666
105680,9;0,007753666
105697,4;0,007753666
105714,3;0,007743402
105730,6;0,007768328
105747,1;0,007756598
105763,8;0,00776393
105780,5;0,007758065
105796,8;0,00777566
105813,4;0,007791789
105830;0,00778739
105846,8;0,007790323
105863,1;0,007781525
105879,8;0,00777566
105896,3;0,007758065
105912,8;0,007780059
105929,4;0,007771261
105945,9;0,007771261
105962,8;0,007790323
105979,1;0,007784457
105995,6;0,007804986
106012,3;0,007831379
106028,8;0,007831379
106045,4;0,007816715
106061,9;0,007819648
106078,5;0,007806452
106095;0,007846042
106111,6;0,007841642
106129;0,007826979
106145,4;0,007819648
106161,5;0,007816715
106178;0,007818182
106194,5;0,007832845
106211;0,007809384
106227,6;0,007807918
106244,3;0,007832845
106261;0,007825513
106277,3;0,007791789
106293,8;0,007780059
106311,2;0,007780059
106327,1;0,007769795
106343,5;0,00776393
106360,1;0,007769795
106377,3;0,007756598
106393,2;0,007736071
106410;0,007759531
106426,4;0,007759531
106442,9;0,007774194
106459,8;0,00777566
106476,1;0,007784457
106493,3;0,007785924
106509,2;0,007797654
106525,8;0,007810851
106542,3;0,007813783
106559;0,007802053
106575,5;0,007815249
106592,4;0,007806452
106608,6;0,007815249
106625,2;0,007835777
106642,4;0,007854839
106658,3;0,007857772
106675;0,007860704
106691,4;0,007853373
106708,3;0,007865103
106724,6;0,007876833
106741,1;0,007869502
106757,7;0,007846042
106774,3;0,007851906
106790,8;0,007828446
106807,4;0,00783871
106824;0,007819648
106840,5;0,007819648
106857,1;0,007826979
106873,7;0,007806452
106897,1;0,007816715
106906,8;0,007780059
106923,4;0,007790323
106940;0,007806452
106957,2;0,007806452
106973,1;0,007818182
106989,6;0,007807918
107006,2;0,007794722
107023,1;0,007780059
107039,9;0,007778592
107055,9;0,007778592
107072,8;0,007781525
107089;0,007760997
107105,7;0,007753666
107122,7;0,007743402
107138,7;0,007744868
107155,3;0,007718475
107172,2;0,007734604
107188,5;0,007730206
107205,2;0,007683285
107221,6;0,007667155
107238,4;0,007674487
107254,7;0,007674487
107271,3;0,007670088
107288;0,00766129
107304,6;0,00766129
107321;0,007681818
107337,6;0,007684751
107354,1;0,007643695
107370,8;0,007653959
107387,2;0,007662757
107403,8;0,00766129
107420,4;0,007658358
107437;0,007645161
107453,9;0,007664223
107470,3;0,007655425
107486,6;0,007658358
107503,2;0,007652493
107520,1;0,007659824
107536,3;0,007652493
107553;0,007643695
107569,6;0,007655425
107586;0,007656891
107602,6;0,007659824
107619,2;0,007659824
107635,7;0,007674487
107652,3;0,007711144
107668,9;0,007731671
107685,4;0,007762463
107702;0,0077522
107718,6;0,007721408
107735,3;0,007714076
107751,7;0,00772434
107768,3;0,007731671
107784,8;0,007744868
107801,4;0,007725806
107818;0,007725806
107834,6;0,007740469
107851,1;0,00779912
107869,8;0,007803519
107884,3;0,007796188
107900,9;0,007791789
107917,4;0,007756598
107934,4;0,007750733
107950,5;0,007743402
107967,1;0,007714076
107983,6;0,007725806
108000,2;0,007697947
108016,8;0,007714076
108033,3;0,007721408
108050;0,007719941
108066,5;0,007706745
108083;0,007714076
108099,6;0,007714076
108116,4;0,007722874
108132,8;0,007718475
108149,9;0,007703812
108166;0,007703812
108182,4;0,007695015
108199;0,007722874
108215,6;0,007722874
108232,1;0,007730206
108248,8;0,0077522
108265,3;0,007746334
108281,8;0,007759531
108299;0,007756598
108315;0,00778739
108331,7;0,00779912
108348,2;0,007794722
108365,1;0,007791789
108381,2;0,007781525
108397,8;0,007778592
108414,4;0,007778592
108431;0,007769795
108447,7;0,007769795
108464,1;0,007741936
108480,7;0,007746334
108497,5;0,007715543
108514,4;0,007697947
108530,3;0,00768915
108546,9;0,007667155
108563,5;0,007667155
108580;0,007681818
108596,6;0,007670088
108613,2;0,007659824
108629,8;0,007643695
108646,3;0,007643695
108662,9;0,007636364
108679,4;0,007630499
108696;0,007615836
108712,8;0,007587977
108729,1;0,00758651
108745,7;0,007577713
108762,3;0,007611437
108778,8;0,007611437
108795,4;0,00761437
108812;0,007587977
108828,5;0,007592375
108845,1;0,007596774
108868,1;0,007611437
108878,2;0,007604106
108894,8;0,007601173
108911,4;0,007601173
108927,9;0,007608505
108944,5;0,007552786
108961,1;0,007552786
108978,4;0,007552786
108994,2;0,007554252
109010,8;0,00755132
109027,5;0,00755132
109043,9;0,007533724
109060,5;0,007535191
109077,3;0,007557185
109093,6;0,007557185
109110,4;0,00756305
109126,7;0,00757478
109143,5;0,007587977
109159,9;0,00757478
109176,4;0,00757478
109193;0,007552786
109209,6;0,007557185
109226,1;0,00757478
109243,1;0,007546921
109259,3;0,007535191
109276,3;0,007529326
109292,4;0,007533724
109309;0,007533724
109326,4;0,007517595
109342,1;0,007502933
109359;0,00751173
109375,2;0,007504399
109392;0,00752346
109408,4;0,00752346
109424,9;0,007516129
109441,5;0,007513197
109458,5;0,007491203
109474,6;0,007497068
109491,8;0,007497068
109507,8;0,007494135
109524,3;0,007494135
109541,1;0,007494135
109557,5;0,007483871
109574,1;0,007485337
109590,7;0,007461877
109607,2;0,007461877
109623,9;0,00747654
109640,3;0,007453079
109656,9;0,007444282
109673,6;0,007450147
109690;0,007450147
109706,6;0,007485337
109723,1;0,007482405
109739,7;0,007450147
109756,3;0,007454546
109772,8;0,00743695
109789,9;0,007438417
109806;0,007444282
109823;0,007435484
109839,1;0,007434017
109855,7;0,007356305
109872,3;0,007370968
109888,8;0,007385631
109905,4;0,007400293
109922,2;0,007379766
109938,9;0,007369502
109955,1;0,007360704
109971,6;0,007372434
109988,9;0,007351906
110004,8;0,007351906
110021,7;0,007328446
110037,9;0,007353372
110055,4;0,007357772
110071;0,007353372
110087,6;0,007337243
110104,2;0,007324047
110120,7;0,007357772
110137,3;0,007357772
110153,9;0,007359237
110170,6;0,007340176
110187,3;0,007340176
110203,6;0,007343109
110220,3;0,007300586
110236,8;0,007259531
110253,3;0,00726393
110270,2;0,007265396
110286,4;0,007246335
110303;0,007260997
110319,7;0,007265396
110336,3;0,007258065
110352,9;0,007266862
110369,2;0,00728739
110386,6;0,007277126
110402,4;0,007268329
110418,9;0,007268329
110435,5;0,007266862
110452,1;0,007266862
110468,6;0,007266862
110485,4;0,007284457
110501,8;0,007284457
110518,4;0,007315249
110534,9;0,007318182
110552,3;0,007332845
110568;0,007334311
110584,6;0,007334311
110601,4;0,007340176
110617,7;0,007340176
110634,3;0,007347507
110651,4;0,007331378
110667,4;0,007337243
110684,3;0,007316716
110700,8;0,007316716
110717,1;0,007312317
110733,8;0,007344575
110750,3;0,007356305
110766,8;0,007360704
110783,8;0,007353372
110800,4;0,007353372
110816,5;0,007346041
110833,1;0,00733871
110849,7;0,007348974
110866,2;0,007370968
110882,8;0,007353372
110899,5;0,0073739
110916;0,007387097
110932,5;0,007388563
110949,1;0,007388563
110965,6;0,007409091
110982,3;0,007422287
110998,8;0,00742522
111015,3;0,007422287
111032,2;0,007416422
111048,5;0,007416422
111065;0,007441349
111081,6;0,007492668
111098,2;0,007485337
111115,1;0,007507332
111131,3;0,007516129
111147,9;0,007526393
111166,2;0,007530792
111181;0,007536657
111197,6;0,007530792
111214,3;0,007507332
111230,7;0,007502933
111247,5;0,007513197
111264,4;0,007526393
111280,7;0,007526393
111297;0,007526393
111313,6;0,007517595
111330,1;0,007533724
111346,7;0,007560117
111363,2;0,007560117
111379,8;0,007570381
111396,6;0,007538123
111412,9;0,007552786
111429,5;0,007545454
111446,1;0,007545454
111462,6;0,007545454
111479,2;0,007549854
111495,8;0,007592375
111512,6;0,007571848
111529;0,007571848
111545,5;0,007589443
111562;0,007630499
111578,6;0,007630499
111595,2;0,00761437
111611,7;0,007617302
111628,3;0,007599707
111644,9;0,007618769
111661,4;0,007618769
111678,6;0,007587977
111694,6;0,007593842
111711,3;0,00759824
111727,7;0,007557185
111744,3;0,007587977
111760,8;0,007580645
111777,4;0,007568915
111794;0,007558651
111811,1;0,007577713
111827,1;0,007577713
111843,7;0,007570381
111860,2;0,007585044
111876,9;0,007561584
111893,8;0,00755132
111909,9;0,00755132
111926,5;0,007582111
111943,1;0,00759824
111959,6;0,007618769
111976,2;0,0076261
111992,8;0,007651026
112009,3;0,007651026
112026,3;0,00764956
112042,5;0,007653959
112059,5;0,007609971
112075,8;0,007612903
112092,2;0,007617302
112108,7;0,007617302
112125,3;0,0076261
112142,1;0,007582111
112158,9;0,007620235
112175,5;0,0076261
112191,8;0,007609971
112208,8;0,007636364
112224,8;0,007643695
112241,4;0,007648094
112257,8;0,00764956
112274,4;0,007668622
112291,2;0,007684751
112307,5;0,007658358
112324,5;0,007675953
112340,7;0,007706745
112357,2;0,007696481
112373,8;0,007695015
112390,6;0,007711144
112407,1;0,007693549
112423,9;0,007690616
112440,6;0,007690616
112457,1;0,007675953
112473,2;0,007674487
112489,9;0,007693549
112506,3;0,007711144
112522,9;0,007711144
112539,6;0,007711144
112556,1;0,007703812
112572,6;0,007703812
112589,7;0,007703812
112605,7;0,007699414
112622,4;0,007692082
112638,9;0,007709677
112655,4;0,007725806
112672;0,00770088
112689,4;0,007730206
112705,1;0,007739003
112721,7;0,007739003
112738,3;0,007737537
112755;0,007731671
112777,4;0,007728739
112788;0,007715543
112804,5;0,007744868
112821,1;0,00776393
112838;0,00776393
112854,4;0,007755132
112871;0,007755132
112887,4;0,007750733
112904,1;0,007746334
112920,5;0,0077522
112937,2;0,007746334
112953,8;0,007778592
112970,4;0,007829912
112986,8;0,00785044
113003,3;0,007866569
113019,9;0,007866569
113036,5;0,007854839
113053;0,007810851
113069,6;0,007818182
113086,2;0,007822581
113102,7;0,007822581
113119,3;0,007859237
113135,9;0,007857772
113152,4;0,0078739
113169,3;0,0078739
113185,9;0,007884164
113202,2;0,007891496
113219;0,007891496
113235,3;0,007888563
113251,9;0,007891496
113268,4;0,007906158
113285;0,007958944
113301,5;0,007967742
113318,1;0,007979472
113334,7;0,007988269
113351,5;0,007988269
113367,8;0,007988269
113384,4;0,007992669
113400,9;0,007969208
113417,5;0,007972141
113434,1;0,007972141
113450,6;0,007983871
113467,2;0,007992669
113483,8;0,008010264
113500,3;0,007980938
113516,9;0,007994135
113533,5;0,007983871
113550;0,007963344
113566,6;0,007963344
113583,2;0,007951613
113599,7;0,007979472
113616,3;0,007970675
113633;0,007972141
113649,4;0,007967742
113666;0,007945748
113682,6;0,007947214
113699,1;0,007992669
113715,7;0,008002932
113732,3;0,008016129
113748,9;0,008020528
113765,4;0,008033725
113782,1;0,00803519
113798,7;0,00803519
113815,2;0,008070381
113831,7;0,008089443
113848,2;0,008101173
113865,5;0,008095308
113881,4;0,008115835
113897,9;0,008115835
113915,4;0,008111437
113931,1;0,008115835
113947,7;0,008107038
113964,3;0,008089443
113980,8;0,008096774
113997,3;0,008095308
114013,9;0,00809091
114030,5;0,008098241
114047;0,008105572
114063,6;0,008142229
114080,2;0,0081261
114096,7;0,008117302
114113,3;0,008129032
114129,9;0,008129032
114146,4;0,008092375
114163;0,008087977
114179,6;0,008127566
114196,1;0,00811437
114212,7;0,008112904
114229,3;0,008098241
114245,8;0,00808651
114262,4;0,008061584
114279,3;0,008083578
114295,5;0,008058651
114312,1;0,008060117
114328,7;0,00805132
114345,2;0,008052786
114361,8;0,008058651
114378,4;0,008052786
114395,3;0,008083578
114411,5;0,008096774
114428,1;0,008111437
114444,6;0,008108504
114461,2;0,00808651
114477,8;0,00808651
114495,1;0,008073314
114510,9;0,00803959
114527,5;0,008054253
114544,2;0,008071847
114560,7;0,008071847
114577,2;0,008068915
114593,7;0,008107038
114610,3;0,008107038
114626,9;0,008140762
114643,4;0,008167155
114660;0,008152492
114676,6;0,008159824
114693,1;0,008187683
114709,8;0,008221407
114726,3;0,008193549
114743,1;0,008193549
114759,4;0,008175953
114776;0,008197947
114792,5;0,008184751
114809,2;0,008167155
114826,4;0,008146628
114842,3;0,008146628
114858,8;0,008164223
114875,4;0,008161291
114891,9;0,008199413
114908,6;0,008190616
114925,1;0,008183285
114941,6;0,008183285
114958,2;0,008111437
114974,8;0,008089443
114991,3;0,008089443
115008;0,008092375
115024,7;0,008112904
115041;0,008120235
115057,6;0,008139296
115074,5;0,008129032
115090,7;0,008131965
115107,3;0,008145161
115123,9;0,008149561
115140,5;0,008140762
115157;0,00813783
115173,6;0,008153959
115190,6;0,00813783
115206,7;0,008143695
115224;0,008158358
115239,8;0,008158358
115256,4;0,008139296
115273;0,008139296
115289,5;0,008139296
115306,1;0,008127566
115322,7;0,008058651
115339,2;0,008049853
115355,8;0,008057185
115372,4;0,008089443
115388,9;0,008087977
115405,6;0,008093841
115422,1;0,008099707
115438,9;0,008130498
115455,2;0,008115835
115471,8;0,008131965
115488,3;0,008151026
115504,9;0,008151026
115521,5;0,008159824
115538;0,008153959
115554,7;0,008146628
115571,3;0,008146628
115587,7;0,008153959
115604,8;0,008118768
115620,9;0,008121701
115637,4;0,008111437
115654;0,008146628
115670,6;0,00813783
115687,1;0,008108504
115704;0,00808651
115720,4;0,008079179
115736,8;0,008060117
115753,4;0,008060117
115770;0,008046921
115786,5;0,008041056
115803,1;0,008029326
115819,8;0,008002932
115836,4;0,007985338
115852,9;0,008004399
115869,8;0,00801173
115885,9;0,007989736
115902,5;0,008002932
115919,1;0,007994135
115935,6;0,008010264
115952,2;0,008010264
115969;0,008048387
115985,3;0,008048387
116002,4;0,00805132
116018,5;0,00805132
116035,4;0,008060117
116051,6;0,008065983
116068,2;0,008064516
116084,7;0,008076247
116101,3;0,008070381
116118,6;0,008107038
116134,4;0,008130498
116151;0,008130498
116167,6;0,008136364
116184,3;0,008120235
116200,8;0,008133431
116217,3;0,008136364
116233,8;0,008118768
116250,4;0,008120235
116267;0,0081261
116284;0,008130498
116300,3;0,008130498
116316,7;0,008151026
116333,9;0,008136364
116349,9;0,008124634
116366,4;0,008133431
116382,9;0,008146628
116399,6;0,008134898
116416,6;0,008131965
116432,6;0,008127566
116449,8;0,00813783
116465,8;0,008134898
116482,5;0,008181818
116499,3;0,008181818
116515,7;0,008190616
116532;0,008190616
116548,8;0,008189149
116565,2;0,008189149
116581,7;0,008208212
116598,4;0,008208212
116614,9;0,008156892
116631,6;0,008131965
116660;0,0081261
116676,5;0,008121701
116693,6;0,008117302
116709,7;0,008117302
116726,4;0,008104105
116742,8;0,008104105
116759,6;0,008149561
116776;0,008149561
116792,8;0,008124634
116809,2;0,008149561
116826,1;0,008129032
116842,2;0,008121701
116859,3;0,008121701
116875,7;0,008096774
116892;0,008073314
116908,5;0,008065983
116925,1;0,008085044
116941,7;0,008085044
116958,2;0,00810264
116974,9;0,008080645
116992,2;0,008080645
117007,9;0,008058651
117024,6;0,008057185
117041,1;0,008099707
117057,9;0,008098241
117074,1;0,008101173
117090,7;0,008080645
117107,9;0,008065983
117123,8;0,008027859
117140,7;0,008021994
117157;0,008005865
117173,6;0,007998534
117190,1;0,008
117206,7;0,008002932
117223,2;0,008002932
117239,8;0,007994135
117256,4;0,007969208
117272,9;0,007978006
117289,5;0,007994135
117306,1;0,008014663
117322,6;0,008019062
117339,2;0,008019062
117356;0,008005865
117372,4;0,007957478
117388,9;0,007973607
117405,5;0,007961877
117422;0,007954545
117438,6;0,007961877
117455,2;0,007954545
117471,7;0,007931085
117488,3;0,007917888
117504,9;0,00793695
117521,6;0,007914956
117538,1;0,00791349
117554,6;0,007920821
117571,1;0,007920821
117588,4;0,007920821
117607,8;0,007923754
117620,8;0,007926687
117637,4;0,007926687
117654;0,00792522
117670,7;0,007932551
117687,1;0,007938417
117703,7;0,007938417
117721;0,007958944
117736,8;0,007958944
117753,4;0,007950147
117769,9;0,007938417
117786,5;0,007932551
117803,5;0,007945748
117819,6;0,007945748
117836,3;0,007997068
117852,9;0,008020528
117869,3;0,008020528
117886,1;0,007980938
117902,7;0,007945748
117919;0,007931085
117935,6;0,007942815
117952,2;0,007917888
117968,8;0,007917888
117985,5;0,007914956
118001,9;0,00792522
118019,2;0,00792522
118035;0,007932551
118051,6;0,007916423
118068,1;0,007928153
118085,7;0,00792522
118101,3;0,007923754
118117,8;0,007929618
118134,4;0,007917888
118151;0,007914956
118167,5;0,007914956
118184,1;0,007938417
118200,7;0,007916423
118217,2;0,00792522
118234,2;0,007960411
118250,4;0,007961877
118266,9;0,007961877
118283,9;0,007967742
118300,1;0,007958944
118316,6;0,007951613
118333,2;0,007973607
118349,8;0,007966275
118366,3;0,00793695
118382,9;0,007942815
118399,5;0,007922287
118416;0,007910557
118432,8;0,007904693
118449,2;0,007923754
118465,7;0,00791349
118482,8;0,007906158
118499,5;0,007906158
118515,4;0,007904693
118532,9;0,007857772
118549,2;0,00785044
118565,2;0,007843109
118581,8;0,007848973
118598,4;0,007834311
118615;0,00783871
118631,5;0,007853373
118648,1;0,007853373
118664,7;0,007854839
118681,3;0,007825513
118697,8;0,007831379
118714,4;0,007837243
118730,9;0,007829912
118747,5;0,007881232
118764;0,007856305
118780,6;0,007857772
118797,4;0,00785044
118813,7;0,007831379
118830,3;0,007848973
118846,9;0,007846042
118863,6;0,00783871
118880;0,007844575
118896,6;0,007857772
118913,1;0,007853373
118929,7;0,007853373
118946,3;0,007876833
118963;0,007892962
118979,4;0,007909091
118996,1;0,007900293
119012,5;0,007900293
119029,6;0,007881232
119045,7;0,007856305
119062,2;0,007772727
119078,8;0,007784457
119095,6;0,007762463
119111,9;0,007762463
119128,9;0,007760997
119145,1;0,007765396
119161,6;0,007796188
119178,2;0,007818182
119194,8;0,007810851
119211,4;0,007810851
119227,9;0,007831379
119244,5;0,007824047
119261,2;0,007834311
119277,6;0,007824047
119294,2;0,007826979
119311;0,007806452
119327,8;0,007804986
119343,9;0,007804986
119360,4;0,007834311
119377,3;0,007828446
119393,6;0,007800587
119410,1;0,007800587
119426,7;0,007762463
119443,3;0,007734604
119460;0,007771261
119476,4;0,00777566
119493;0,007758065
119510;0,007782992
119526,1;0,007822581
119542,7;0,007826979
119560;0,007841642
119576,1;0,007866569
119592,4;0,007876833
119609,2;0,007876833
119625,6;0,0078739
119642,1;0,007922287
119658,6;0,007917888
119675,2;0,007923754
119692,5;0,007935484
119708,5;0,007920821
119724,9;0,007919355
119741,8;0,007928153
119758;0,007928153
119774,6;0,007928153
119791,2;0,007942815
119807,8;0,007957478
119824,4;0,0078739
119841,1;0,007906158
119857,4;0,007919355
119874;0,007941349
119890,6;0,007950147
119907,1;0,007956012
119924,5;0,007945748
119940,3;0,007958944
119957,5;0,007958944
119973,4;0,007956012
119990;0,007947214
120006,5;0,00793695
120023,1;0,007904693
120039,7;0,007904693
120056,2;0,007904693
120072,8;0,007897361
120089,4;0,007879766
120105,9;0,007870967
120122,8;0,007857772
120139,1;0,007847507
120155,6;0,007848973
120172,2;0,007866569
120189;0,007816715
120205,4;0,007831379
120222,1;0,007813783
120238,5;0,007802053
120255,3;0,007806452
120271,7;0,007780059
120288,2;0,007769795
120304,9;0,007791789
120321,3;0,007749267
120337,9;0,007782992
120354,4;0,007790323
120371,8;0,007790323
120387,6;0,007793255
120404,4;0,007791789
120420,7;0,007790323
120437,3;0,007790323
120453,8;0,007780059
120470,4;0,007737537
120488,3;0,007747801
120504,8;0,007747801
120521,5;0,007756598
120538,3;0,0077522
120554,5;0,00776393
120571,2;0,007750733
120587,8;0,007758065
120604,2;0,007759531
120620,8;0,007759531
120637,4;0,007734604
120654,7;0,007750733
120670,5;0,007750733
120687,7;0,007781525
120703,6;0,007781525
120720,3;0,007736071
120736,8;0,007721408
120754;0,007727273
120769,9;0,007746334
120786,5;0,0077522
120803;0,007778592
120819,6;0,007780059
120836,2;0,007791789
120853,1;0,007791789
120869,3;0,007809384
120886,2;0,007784457
120902,6;0,007784457
120919,2;0,00778739
120936;0,007769795
120952,1;0,007762463
120968,7;0,007762463
120985,4;0,007768328
121001,8;0,007791789
121018,4;0,007788857
121035;0,007788857
121051,5;0,007791789
121068,1;0,007788857
121084,8;0,007825513
121101,2;0,007843109
121117,8;0,007872434
121134,4;0,007866569
121150,9;0,007881232
121167,5;0,007860704
121184,1;0,007846042
121201;0,007853373
121217,2;0,007853373
121233,8;0,007900293
121250,3;0,007904693
121266,9;0,007917888
121283,5;0,007895894
121300,1;0,007900293
121316,6;0,0078739
121333,2;0,0078739
121349,7;0,007863636
121366,3;0,007859237
121383;0,007859237
121399,4;0,007887097
121416;0,007909091
121432,6;0,007926687
121449,1;0,007926687
121465,7;0,007944281
121482,8;0,007969208
121499;0,007969208
121515,8;0,007917888
121532;0,007912024
121548,5;0,007909091
121565,1;0,007912024
121581,7;0,00788563
121598,3;0,00788563
121614,8;0,007870967
121631,4;0,007888563
121648,6;0,007854839
121665;0,007832845
121681,1;0,007824047
121697,6;0,007815249
121714,2;0,007822581
121731,1;0,007832845
121747,8;0,007835777
121764;0,007819648
121780,6;0,007797654
121797,5;0,007806452
121813,6;0,007806452
121830,2;0,007807918
121846,7;0,007777126
121864,3;0,007819648
121880,5;0,007822581
121896,4;0,007821115
121913,4;0,007821115
121929,9;0,007809384
121946,2;0,007809384
121963;0,007780059
121979,5;0,00777566
121995,8;0,007755132
122012,7;0,007744868
122029;0,007753666
122045,5;0,007760997
122062,1;0,007750733
122078,7;0,007758065
122095,2;0,007788857
122111,8;0,007794722
122128,4;0,007794722
122145,3;0,007791789
122161,5;0,007791789
122178,1;0,007782991
122195,1;0,007791789
122211,7;0,007781525
122227,8;0,007766862
122245,1;0,00777566
122261,1;0,007781525
122277,5;0,007815249
122294;0,007840176
122311,3;0,007828446
122327,2;0,007834311
122344;0,007834311
122360,3;0,007822581
122377,4;0,007804986
122393,4;0,007807918
122410;0,007851906
122426,6;0,007840176
122443,3;0,007840176
122460,2;0,007884164
122476,7;0,007894428
122492,9;0,007919355
122509,4;0,007926687
122526;0,007945748
122542,5;0,007966275
122559,2;0,007966275
122575,7;0,007988269
122592,4;0,008
122608,8;0,008001466
122625,4;0,008010264
122641,9;0,008010264
122658,5;0,007985338
122675,6;0,007992669
122691,7;0,008013196
122708,2;0,008016129
122724,8;0,008
122741,3;0,008016129
122757,9;0,007976539
122774,5;0,007976539
122791;0,007979472
122807,9;0,007979472
122824,2;0,007983871
122840,7;0,007991202
122857,3;0,007970675
122873,9;0,007972141
122890,8;0,007979472
122907;0,007970675
122923,6;0,007989736
122940,4;0,007989736
122956,7;0,007975074
122973,6;0,007975074
122989,8;0,007976539
123006,4;0,007953079
123023,1;0,007942815
123039,5;0,007969208
123056,1;0,007978006
123072,8;0,007983871
123089,2;0,007994135
123105,9;0,007991202
123122,4;0,007991202
123138,9;0,007985338
123155,9;0,007989736
123172,1;0,007986804
123188,6;0,007975074
123205,2;0,007986804
123222,1;0,007958944
123238,3;0,007926687
123254,9;0,007914956
123271,5;0,007904693
123288,7;0,007904693
123305,2;0,007903226
123321,2;0,00793695
123344,5;0,007932551
123354,3;0,00792522
123370,9;0,00792522
123387,4;0,007923754
123404;0,007898827
123420,6;0,007910557
123437,1;0,007920821
123454,1;0,007920821
123470,3;0,007876833
123487,5;0,007938417
123504,3;0,008129032
123520,4;0,008129032
123536,5;0,008659824
123553,1;0,008950147
123569,7;0,008994135
123586,2;0,009068915
123602,8;0,009079179
123619,4;0,009079179
123636,2;0,009161291
123652,5;0,009585044
123669,1;0,009678885
123685,8;0,009683285
123702,3;0,009680352
123718,8;0,009689149
123735,3;0,009709678
123751,9;0,00976393
123768,5;0,00976393
123785;0,009821114
123801,6;0,009898827
123818,2;0,009975073
123835,3;0,009975073
123851,3;0,009975073
123868,2;0,0100132
123884,5;0,01009091
123901,2;0,01010704
123917,8;0,01010704
123934,4;0,01026686
123950,7;0,01055572
123967,3;0,01057478
123984,2;0,01071261
124000,4;0,01078006
124017;0,0108827
124033,5;0,0108827
124050,1;0,01103079
124066,7;0,01105572
124083,2;0,01121848
124099,8;0,01130059
124116,4;0,01138856
124132,9;0,01143402
124149,5;0,01149413
124166,3;0,0116261
124182,6;0,01166862
124199,2;0,01170675
124215,9;0,01170675
124232,5;0,01173314
124248,9;0,01180645
124265,5;0,01180645
124282;0,01200293
124298,6;0,01233871
124315,7;0,01243109
124331,7;0,01259384
124348,3;0,01272141
124364,9;0,01301906
124381,8;0,01301906
124398;0,01318622
124414,6;0,01329765
124431,2;0,01333578
124447,7;0,0133651
124464,3;0,0133651
124480,8;0,01343988
124497,4;0,0135176
124514,1;0,01354839
124530,5;0,01354545
124547,7;0,01360411
124563,7;0,01374194
124580,2;0,01379179
124596,8;0,01391789
124613,7;0,01391496
124629,9;0,01392082
124646,7;0,01409531
124663,1;0,01418915
124679,8;0,01421847
124696,2;0,01421847
124712,8;0,01429326
124729,6;0,01436217
124745,9;0,01438416
124762,5;0,0146349
124779,6;0,01467595
124795,6;0,01475073
124812,2;0,01479472
124828,7;0,01478153
124845,3;0,01498974
124861,9;0,01498974
124878,4;0,01510264
124895;0,01510264
124911,7;0,01514516
124928,1;0,01528006
124944,7;0,01557918
124961,3;0,0156437
124977,8;0,01565396
124994,8;0,01572581
125011;0,01572581
125027,6;0,01585191
125044,1;0,01600733
125060,7;0,01609384
125077,2;0,0162566
125094;0,01628299
125110,5;0,01660557
125126,9;0,01717889
125144;0,01722727
125160,1;0,0172654
125176,6;0,0172654
125193,4;0,01740762
125209,8;0,0173871
125226,3;0,01758211
125242,9;0,01770381
125259,5;0,01788563
125279,9;0,01789589
125292,6;0,01793988
125309,2;0,01798827
125325,7;0,01826246
125342,3;0,01838123
125358,9;0,01853959
125375,8;0,01867888
125392;0,01879179
125408,9;0,01889443
125425,9;0,0190176
125441,7;0,0190176
125458,3;0,01936657
125474,8;0,01965396
125491,4;0,01970528
125508;0,01965543
125524,5;0,01961437
125541,2;0,01961437
125557,7;0,01942962
125574,6;0,01920088
125591,6;0,01931232
125607,4;0,01955719
125624,3;0,01957625
125641,1;0,01964369
125657,4;0,02002786
125673,6;0,02017742
125690,2;0,02039883
125706,8;0,02054106
125723,3;0,02081965
125739,9;0,02128886
125756,6;0,02147214
125773,7;0,02186657
125789,6;0,02207038
125806,4;0,02248387
125822,9;0,02267449
125839,6;0,02304692
125855,9;0,02320968
125872,4;0,02358064
125889;0,02397947
125905,6;0,02427713
125922,5;0,02451906
125938,7;0,02464369
125955,7;0,02464369
125972,2;0,02545161
125988,4;0,02596334
126005;0,0263827
126021,6;0,0265176
126038,1;0,0265176
126054,7;0,02762903
126071,3;0,02797068
126088,3;0,02867888
126104,4;0,02943108
126120,9;0,02987537
126137,6;0,02993402
126154,2;0,03032551
126170,6;0,03052053
126187,2;0,03057625
126203,8;0,03145894
126226,7;0,0323695
126236,9;0,03278446
126253,5;0,03308504
126270,6;0,03339589
126286,7;0,03339589
126303,2;0,03446481
126319,7;0,03448387
126336,3;0,03527712
126352,9;0,03556598
126369,4;0,0358915
126386;0,03613196
126402,6;0,03635924
126419,8;0,03664076
126436,1;0,03749413
126452,6;0,03806159
126469;0,03822874
126485,5;0,03822874
126502;0,03871261
126518,8;0,03892815
126535,1;0,03935484
126551,7;0,03978006
126568,2;0,03987243
126584,8;0,04007185
126601,4;0,04033138
126617,9;0,04033138
126634,5;0,0410044
126651,8;0,04128446
126667,8;0,04169941
126684,2;0,04192522
126700,8;0,04212463
126717,7;0,04210557
126734,5;0,04221554
126750,5;0,04218915
126767,1;0,04241789
126783,6;0,04243695
126800,4;0,04246921
126816,8;0,04246921
126833,3;0,04256598
126849,9;0,04292669
126866,4;0,04316129
126883;0,04316129
126899,6;0,04329179
126916,1;0,04331231
126932,7;0,04332991
126949,3;0,04342229
126965,9;0,04342229
126982,5;0,04361437
126999;0,04369501
127015,5;0,04381378
127032,1;0,04408211
127048,7;0,04441496
127065,2;0,04447068
127081,8;0,04445308
127098,4;0,04445308
127115;0,04380058
127131,6;0,04381818
127148,1;0,04384897
127164,6;0,0438915
127181,6;0,04383285
127198,1;0,04435191
127214,7;0,04451466
127231,3;0,04448534
127247,9;0,04492815
127264,4;0,04492815
127281,3;0,04487976
127298,1;0,04498387
127314,6;0,04510704
127330,7;0,04510704
127347,3;0,04524633
127364,5;0,04541642
127380,4;0,04541935
127397;0,04558358
127413,9;0,04571994
127430,1;0,04576686
127447;0,04579912
127463,6;0,04579912
127479,8;0,04563636
127496,4;0,04547507
127512,9;0,04563196
127529,8;0,04574927
127546,1;0,04581085
127562,6;0,0457566
127579,2;0,04566862
127595,8;0,04566862
127612,3;0,04575367
127628,9;0,04573314
127645,5;0,0457698
127662,1;0,04538856
127678,6;0,04514516
127695,1;0,04508504
127711,7;0,045
127728,3;0,045
127745,3;0,04507625
127762;0,04492082
127778,2;0,04438856
127794,9;0,04443988
127811,3;0,04414956
127827,7;0,04403519
127844,3;0,04403519
127860,9;0,04360411
127877,4;0,0434003
127894;0,04350587
127910,6;0,04313343
127927,1;0,04313343
127943,8;0,04263343
127960,4;0,04265982
127976,8;0,04219208
127993,6;0,04164369
128010,2;0,0412566
128026,5;0,04107185
128043,2;0,04076393
128059,6;0,04006305
128076,2;0,04006305
128092,7;0,03988563
128109,6;0,03962464
128133,5;0,03916129
128142,5;0,03848534
128159;0,03816716
128175,6;0,0381217
128192,2;0,03788416
128208,7;0,03780938
128226,1;0,03726686
128241,9;0,03675807
128258,9;0,03638563
128275;0,03634018
128291,8;0,03617302
128308,5;0,03612903
128324,7;0,03491349
128341,3;0,03446921
128357,8;0,03416862
128375,1;0,03416862
128390,9;0,03368622
128407,5;0,03325513
128424,4;0,03307478
128440,6;0,03259531
128457,6;0,03259531
128473,8;0,03224927
128490,8;0,03215689
128507,6;0,03193108
128523,5;0,03166422
128540,1;0,03164223
128556,6;0,03120088
128573,9;0,03116129
128589,8;0,03092082
128606,7;0,03084018
128622,9;0,03067889
128639,5;0,03044135
128656;0,03044135
128672,6;0,03005865
128689,8;0,03005865
128706,1;0,03005865
128722,4;0,03012903
128738,8;0,03029032
128755,4;0,03030499
128772;0,03036657
128788,5;0,03008064
128805,6;0,03005718
128821,8;0,02988563
128838,3;0,02989443
128855,1;0,02979326
128871,4;0,02954985
128888;0,02954985
128904,7;0,02959677
128921,1;0,02959677
128937,7;0,02972581
128954,7;0,02965396
128971,7;0,02964076
128987,4;0,02964809
129003,9;0,02955719
129020,5;0,02954545
129037;0,02905865
129058;0,02903372
129070,2;0,02908798
129086,8;0,0289912
129103,3;0,02914516
129119,9;0,02920235
129136,8;0,02920235
129153,2;0,02921847
129169,6;0,02913343
129186,2;0,02948387
129203;0,02903812
129219,7;0,02894575
129235,9;0,02896921
129252,4;0,02862317
129269;0,02862317
129285,6;0,02861437
129302,1;0,02843695
129318,7;0,02822874
129335,3;0,02808944
129351,9;0,02808944
129368,4;0,02810704
129384,9;0,02812903
129402,4;0,02838563
129418,1;0,02830938
129434,6;0,02817889
129451,2;0,02837243
129468,1;0,02829326
129484,3;0,02852786
129501,3;0,02852493
129517,5;0,02815689
129534,3;0,02821408
129550,7;0,02828006
129567,2;0,02828886
129583,8;0,02804692
129600,3;0,02799414
129616,9;0,02796041
129633,5;0,02802199
129650;0,02800293
129666,6;0,02821408
129683,6;0,02831525
129699,8;0,02833578
129716,6;0,02833284
129732,9;0,02828299
129749,4;0,02828152
129766,3;0,02828152
129782,5;0,02839296
129799,6;0,02839589
129815,8;0,02852346
129832,4;0,0286217
129848,8;0,0286217
129865,4;0,02845748
129881,9;0,02846481
129898,6;0,02842375
129915,1;0,02852346
129931,7;0,02849853
129948,6;0,02835337
129964,8;0,02819062
129981,4;0,02815543
129997,9;0,02809091
130014,5;0,02816862
130031,1;0,02816862
130047,6;0,02815249
130064,2;0,02815836
130081,1;0,02816862
130097,3;0,02780938
130114,1;0,02755865
130130,4;0,02755865
130147;0,02757918
130163,8;0,02728446
130180,4;0,02712903
130196,7;0,02711877
130213,6;0,02696774
130229,8;0,0268871
130246,8;0,02679912
130263,2;0,02701466
130280;0,02696774
130296,1;0,02696774
130312,7;0,02708798
130329,3;0,02723021
130345,8;0,02708944
130362,4;0,02713343
130379;0,02713343
130395,5;0,02706012
130412,3;0,02671994
130428,7;0,0266085
130445,5;0,0266437
130462,2;0,02670821
130478,4;0,02656158
130495;0,02668182
130511,5;0,02665542
130528,1;0,0266173
130544,6;0,02653519
130561,3;0,02664663
130578,9;0,02664663
130594,3;0,02696774
130610,9;0,02693695
130627,5;0,02693695
130644,1;0,02683138
130660,8;0,02674193
130677,2;0,02674193
130693,7;0,02690909
130710,3;0,02639296
130726,9;0,02606158
130743,7;0,02604692
130760,1;0,02606891
130776,5;0,0259868
130793,7;0,02616129
130810,4;0,02611877
130826,3;0,02607185
130843,3;0,02640469
130859,6;0,02640469
130876,2;0,02629032
130892,7;0,0262566
130909,4;0,02627273
130925,6;0,02618622
130942,2;0,02631525
130959;0,02628152
130975,8;0,02629619
130992,4;0,02646188
131008,7;0,02660117
131025,2;0,0267654
131041,8;0,02681818
131058,4;0,02668328
131074,9;0,02659677
131091,5;0,02652199
131108,1;0,02652199
131125,1;0,02659677
131141,6;0,02672287
131157,8;0,02677859
131174,3;0,02678886
131190,9;0,02678592
131207,5;0,0270176
131224,4;0,02709824
131240,6;0,02708065
131257,2;0,02708065
131273,8;0,02702786
131290,3;0,02703226
131306,9;0,02703226
131323,4;0,02705865
131340;0,02742229
131356,6;0,02749413
131373,8;0,02740762
131389,7;0,02727126
131406,3;0,0273783
131422,9;0,02728886
131439,4;0,02719501
131456;0,02715249
131472,5;0,02720088
131489,2;0,02698387
131506;0,02703666
131522,3;0,02742522
131538,8;0,02742522
131555,4;0,02746334
131572,3;0,02756892
131588,5;0,02771554
131605,1;0,02746334
131621,6;0,02747947
131638,4;0,02756452
131654,8;0,02747801
131671,4;0,02743988
131687,9;0,02742669
131704,6;0,02733724
131721;0,02716862
131737,6;0,02711144
131754,2;0,02707185
131770,7;0,02718475
131787,3;0,02719648
131803,9;0,02717302
131820,7;0,02717302
131837,7;0,02685924
131854;0,02690323
131870,1;0,02698827
131886,7;0,02706305
131903,9;0,02703079
131919,8;0,02703079
131936,4;0,02682405
131953,9;0,02671114
131969,5;0,0268651
131986,1;0,02717009
132003,5;0,02721848
132019,5;0,02718182
132035,9;0,02712317
132052,4;0,02726833
132068,9;0,02730059
132085,5;0,02742815
132102,3;0,02755425
132118,6;0,02739003
132135,2;0,02739003
132151,8;0,02748387
132169,1;0,02793108
132184,9;0,02780059
132201,5;0,02785484
132218,4;0,02789443
132234,6;0,02805279
132251,9;0,02829032
132267,8;0,02839589
132284,3;0,02833724
132301;0,02833724
132317,6;0,0283783
132334,4;0,02840323
132350,6;0,02847361
132367,3;0,02846627
132383,7;0,02841056
132400,3;0,02845161
132416,8;0,0286261
132433,4;0,02871994
132450;0,02880499
132466,5;0,02916276
132483,1;0,02903519
132500;0,02903519
132516,3;0,02938123
132533,2;0,02941349
132549,4;0,02941349
132566,4;0,02947947
132582,5;0,02947947
132599,1;0,02957038
132615,6;0,02931672
132632,4;0,02965249
132648,8;0,02960411
132665,3;0,02959091
132681,9;0,02991056
132698,8;0,02996188
132715,2;0,03002639
132731,6;0,03002199
132748,2;0,03031818
132764,7;0,03029912
132781,5;0,03007478
132797,9;0,03012903
132817,3;0,03021114
132831;0,03045455
132847,6;0,03023754
132864,1;0,03040029
132880,7;0,03044868
132897,4;0,03044868
132914,2;0,03031818
132930,4;0,03019355
132947;0,03027126
132963,5;0,03048534
132980,1;0,03046921
132996,8;0,0303607
133013,3;0,03027273
133029,8;0,03010264
133046,4;0,03010264
133063,7;0,03007185
133079,8;0,03013636
133096,4;0,03026979
133113,1;0,03015249
133129,2;0,0301393
133145,9;0,03009091
133162,9;0,03004252
133178,9;0,02992815
133195,5;0,02992815
133212,8;0,0297522
133228,9;0,0296261
133245,2;0,02983578
133262,1;0,02965249
133278,5;0,02977859
133295,4;0,0296217
133311,8;0,02957478
133328;0,02957478
133344,7;0,02946921
133361,1;0,02946334
133378;0,02928446
133394,3;0,02936657
133410,9;0,02939296
133427,9;0,02958065
133444,5;0,0295
133460,5;0,02957038
133477,1;0,02953959
133493,7;0,02958065
133510,5;0,02956305
133526,8;0,02951026
133543,4;0,02946481
133559,9;0,02946481
133576,5;0,02937097
133593,2;0,02954839
133609,7;0,02959238
133626,7;0,02940176
133643,7;0,02997361
133659,8;0,03006452
133676,1;0,02999707
133692,6;0,03025953
133709;0,03056158
133725,6;0,03052933
133742,2;0,03078886
133759,8;0,03077566
133775,6;0,03062757
133792,7;0,03062757
133808,4;0,03058798
133825,8;0,03083431
133842,3;0,03082258
133858,3;0,03095455
133874,7;0,0308871
133891,3;0,03100586
133907,8;0,03114809
133924,4;0,0312654
133941;0,03151613
133957,5;0,0315176
133974,1;0,0316173
133990,7;0,0313607
134007,4;0,03131525
134023,8;0,03140909
134040,5;0,03157038
134057;0,03151466
134073,8;0,03149853
134090,1;0,03145454
134106,7;0,03179765
134123,4;0,03180939
134139,8;0,03176833
134156,3;0,03200587
134172,9;0,03204692
134189,5;0,0316085
134206,3;0,03171701
134222,6;0,03148094
134239,2;0,03141202
134255,7;0,03134017
134272,3;0,0312434
134288,9;0,0312434
134305,5;0,03129179
134322;0,03151026
134338,6;0,03151026
134355,1;0,03147068
134371,8;0,03159384
134388,3;0,0317522
134404,8;0,03195895
134421,4;0,03195895
134438,4;0,03178592
134454,5;0,03172287
134471,1;0,03172287
134487,7;0,03160264
134504,2;0,03147068
134520,8;0,03147361
134537,4;0,03140469
134553,9;0,03141642
134570,5;0,031239
134587,1;0,0312434
134603,7;0,03123754
134620,4;0,03123754
134636,8;0,03156305
134653,5;0,03155278
134669,9;0,03152199
134686,8;0,03151173
134705,3;0,03157038
134719,6;0,0314912
134736,2;0,03139883
134752,8;0,03139589
134769,3;0,03146921
134785,9;0,03148094
134802,6;0,03152053
134819,6;0,03174927
134835,8;0,03168328
134852,1;0,0316349
134869,2;0,03162903
134885,3;0,03160117
134901,9;0,03155278
134918,4;0,03179765
134935;0,03182405
134951,5;0,03164663
134968,1;0,03152199
134984,9;0,03144868
135001,3;0,03144868
135017,8;0,03184164
135034,4;0,03186364
135051;0,03191496
135067,7;0,03209384
135084,1;0,03202346
135100,6;0,03201613
135117,2;0,03201613
135134,1;0,0321173
135150,3;0,03220381
135167,4;0,03216862
135183,5;0,03208358
135200,1;0,03207625
135217;0,03216276
135233,2;0,03196921
135249,7;0,03207625
135266,6;0,03193255
135282,9;0,03191496
135299,7;0,03205865
135316;0,03205865
135332,7;0,03195455
135349,8;0,03206012
135365,8;0,03196628
135382,3;0,03193402
135398,8;0,03183724
135415,4;0,03168622
135432,2;0,03169355
135448,5;0,03216716
135465,1;0,03213343
135481,7;0,0321217
135498,3;0,0321217
135515,3;0,03225513
135531,4;0,03196921
135548,9;0,03195161
135564,7;0,03178739
135581,1;0,03178739
135597,8;0,03228299
135614,2;0,03223167
135630,8;0,03221408
135652,3;0,03178006
135663,9;0,03175513
135680,5;0,0318651
135697;0,03136217
135713,6;0,0311261
135730,2;0,0311261
135746,8;0,03104692
135763,6;0,03104692
135780,1;0,03080938
135796,5;0,03079032
135813;0,03081672
135829,6;0,0309824
135846,8;0,03068035
135862,7;0,03054839
135879,4;0,03042375
135895,9;0,03028592
135912,8;0,0302654
135929;0,0302654
135945,7;0,02980352
135962,1;0,02981525
135978,7;0,02985044
135995,2;0,02988856
136011,8;0,02988563
136028,4;0,02991056
136044,9;0,02982698
136061,5;0,02985924
136078,1;0,0297434
136094,7;0,02955279
136111,2;0,02957771
136127,8;0,02959677
136144,3;0,0296261
136160,9;0,02970235
136177,5;0,02969502
136194;0,02954252
136210,6;0,02958944
136227,2;0,02991056
136243,8;0,03002493
136260,3;0,03007625
136276,9;0,03018768
136293,4;0,03007038
136310,5;0,03046774
136326,9;0,03043988
136343,5;0,03026979
136359,7;0,03026979
136376,3;0,03020968
136392,8;0,03020968
136409,4;0,03035191
136426;0,03041936
136442,8;0,03036804
136459,1;0,03065103
136475,7;0,03059824
136492,3;0,03059824
136509,5;0,03026246
136525,4;0,030261
136542;0,03026393
136558,8;0,0301261
136575,1;0,03015103
136591,6;0,03039296
136608,2;0,0302346
136625;0,02979472
136641,4;0,02979472
136657,9;0,02970088
136674,6;0,02959677
136691;0,02930792
136707,6;0,02926246
136724,4;0,02935337
136740,7;0,0291085
136757,3;0,02916276
136774,2;0,02916569
136790,5;0,02911437
136807;0,029
136823,6;0,029
136840,7;0,02857771
136856,7;0,02857771
136873,3;0,02852786
136889,8;0,02845748
136906,4;0,02824487
136923,1;0,02826246
136939,5;0,02833578
136956,1;0,02825953
136972,7;0,02835924
136989,3;0,02845894
137005,8;0,02832845
137022,4;0,02832845
137038,9;0,02809531
137055,5;0,02809531
137072,1;0,02809531
137088,9;0,0278651
137105,2;0,0279956
137121,8;0,02757331
137138,4;0,0276261
137154,9;0,02778886
137171,5;0,02778886
137188,5;0,02803372
137204,7;0,02795894
137221,2;0,02834897
137237,8;0,02835924
137254,4;0,02845015
137270,9;0,02852199
137287,8;0,02858651
137304,3;0,02858651
137320,6;0,02890763
137337,3;0,02890763
137353,7;0,02903226
137370,4;0,02902639
137386,8;0,02903666
137403,4;0,02904985
137420,1;0,02900586
137436,5;0,02859091
137453,1;0,02848974
137469,7;0,02873021
137486,2;0,02906598
137503,1;0,02906598
137519,4;0,02906305
137536;0,02912317
137552,5;0,02924047
137569,1;0,02920968
137585,6;0,02920235
137602,3;0,02882845
137618,9;0,02883431
137635,6;0,0291305
137652,1;0,02926686
137668,5;0,02910117
137685;0,02922581
137702,4;0,02922581
137718,2;0,02918329
137734,7;0,02928739
137751,3;0,0291217
137767,9;0,0292522
137784,4;0,02921114
137801;0,02903079
137817,7;0,02902493
137834,2;0,02901026
137851,2;0,02893109
137867,9;0,02905132
137883,8;0,02909824
137900,4;0,02909824
137917;0,02905132
137933,5;0,02897214
137950,1;0,02897654
137967,6;0,02891789
137983,3;0,0288915
137999,8;0,02873021
138016,4;0,0288607
138032,9;0,02871114
138049,5;0,02856012
138066,1;0,02839883
138082,6;0,02833724
138099,3;0,02826686
138115,9;0,02804839
138132,3;0,02804839
138148,9;0,02778153
138165,5;0,02765396
138182;0,02770381
138198,6;0,02767742
138215,2;0,02744281
138231,8;0,02724633
138248,3;0,02702786
138265,1;0,02702786
138281,5;0,02646921
138298,1;0,02646921
138314,6;0,02642815
138331,8;0,02615982
138347,7;0,0258783
138364,3;0,02574633
138380,9;0,02566569
138397,4;0,0251305
138414;0,02481672
138430,6;0,02443402
138447,2;0,02442669
138463,7;0,0243871
138480,3;0,02409384
138496,9;0,0239868
138513,7;0,02388563
138530;0,02367449
138546,5;0,02354546
138563,1;0,02336217
138579,7;0,02331085
138596,2;0,02289296
138612,8;0,02289296
138629,3;0,02287097
138645,9;0,02306012
138662,9;0,02310117
138679;0,02310411
138695,9;0,02317742
138712,2;0,02305865
138728,8;0,02305279
138745,3;0,02305279
138761,9;0,02279472
138778,6;0,02266276
138795;0,02247801
138811,6;0,02237683
138828,3;0,02232405
138844,7;0,02226833
138861,4;0,02216276
138878;0,02202346
138894,4;0,02194721
138911;0,02185044
138927,5;0,0217346
138944,2;0,0217346
138960,7;0,02163197
138977,3;0,02163197
138994,2;0,02163197
139010,4;0,02117302
139027;0,02094135
139043,5;0,02082112
139060,1;0,02074047
139076,8;0,02043402
139093,3;0,02043402
139109,8;0,02011437
139126,3;0,02006598
139143,8;0,01990469
139159,9;0,01955719
139176,2;0,01933284
139193;0,01927566
139209,6;0,01909238
139226;0,01909238
139242,3;0,0183783
139258,9;0,0183607
139275,7;0,01822874
139292;0,01776393
139308,6;0,0173783
139325,2;0,01716862
139341,8;0,01716862
139358,6;0,0167346
139374,9;0,01664516
139391,9;0,01665982
139408;0,01663783
139424,7;0,01651906
139441,3;0,0163739
139459,9;0,016239
139474,8;0,01578299
139491,3;0,01556598
139507,4;0,01566569
139523,9;0,01534018
139540,7;0,01523167
139557,3;0,01503519
139574;0,01488416
139590,2;0,01487976
139606,8;0,01482845
139623,3;0,01482845
139639,9;0,01460704
139656,5;0,01394721
139673;0,01360411
139690;0,01355865
139707,1;0,01353812
139722,8;0,01322434
139739,3;0,01333431
139755,9;0,01328739
139773,3;0,01320968
139789;0,01331965
139805,6;0,0133563
139822,1;0,01339443
139838,7;0,01336364
139855,3;0,01337683
139871,8;0,01345894
139888,4;0,01343109
139905;0,01343109
139921,5;0,01338563
139938,6;0,01356452
139955;0,01366276
139971,2;0,0136393
139987,8;0,01363197
140004,6;0,01343255
140021,1;0,01317889
140037,7;0,01299707
140054,3;0,01299707
140070,6;0,0128783
140087,5;0,01281232
140104,2;0,01281232
140120,3;0,01245601
140137,2;0,01231232
140153,5;0,01220088
140170;0,01211144
140186,6;0,01210997
140203,2;0,01185191
140219,7;0,01185191
140236,6;0,01178006
140253;0,01178006
140269,6;0,01174487
140286;0,01170088
140302,7;0,01164223
140319,1;0,01146921
140335,7;0,01128739
140352,3;0,01122141
140368,8;0,01121114
140385,4;0,01121114
140406,2;0,01115689
140418,6;0,01107918
140435,1;0,01105279
140452,1;0,01104985
140468,3;0,01102639
140485,3;0,01098974
140501,4;0,01096481
140517,9;0,01090029
140534,5;0,01090029
140551,1;0,01085484
140567,9;0,01085631
140584,3;0,01085337
140600,8;0,01084164
140617,3;0,01071848
140634,7;0,01052786
140650,5;0,01026979
140667;0,0102566
140683,6;0,009892962
140700,6;0,009793255
140717,5;0,009709678
140733,6;0,009692082
140749,9;0,009680352
140766,5;0,009674487
140783;0,009653959
140799,9;0,009655425
140816,2;0,009653959
140832,7;0,009642228
140849,5;0,009589443
140866;0,009589443
140882,9;0,009585044
140899,3;0,009585044
140915,5;0,009585044
140932,1;0,009507331
140948,7;0,009507331
140965,4;0,009494135
140982,2;0,009494135
140998,4;0,009473607
141015;0,009467742
141032;0,009467742
141048,1;0,009400293
141064,9;0,009400293
141081,2;0,009428153
141097,8;0,009406159
141114,3;0,009406159
141130,9;0,009391496
141147,5;0,009346041
141164,1;0,009312317
141180,6;0,009322581
141197,2;0,009307918
141214;0,009306451
141230,8;0,009307918
141246,9;0,00929912
141263,4;0,009306451
141280;0,009340176
141296,6;0,009353372
141313,1;0,009354839
141329,8;0,009363636
141346,4;0,009368035
141363;0,009353372
141379,6;0,009348974
141396,4;0,009281525
141412,8;0,009070382
141429,3;0,009017595
141446,2;0,008967742
141462,4;0,008916423
141479,6;0,008793255
141495,5;0,008557185
141512,1;0,008557185
141528,7;0,008510264
141545,2;0,008510264
141561,8;0,008441349
141578,4;0,008313783
141594,9;0,008269795
141611,5;0,008256598
141628,1;0,008243402
141644,9;0,008164223
141661,2;0,008149561
141678,1;0,008155425
141694,5;0,008171555
141710,9;0,008174486
142044,2;0,006246334
142060,9;0,006255132
142077,4;0,006249267
142094,2;0,006252199
142110,6;0,006258064
142127,4;0,00626393
142144,6;0,006271261
142160,2;0,006271261
142176,8;0,006268329
142193,4;0,006255132
142209,9;0,006227273
142226,5;0,006259531
142243,1;0,006240469
142259,6;0,00621261
142276,2;0,006225807
142292,8;0,006225807
142309,6;0,006234604
142325,9;0,006231672
142342,4;0,006233138
142359;0,006243402
142375,8;0,006243402
142392,4;0,006250733
142408,7;0,006250733
142426;0,006246334
142441,8;0,006246334
142458,5;0,006252199
142475;0,006260997
142491,7;0,006280059
142508,1;0,00626393
142524,7;0,006271261
142541,2;0,006262464
142557,8;0,006256599
142574,4;0,006268329
142590,9;0,006272727
142607,7;0,006281525
142624,2;0,006281525
142640,7;0,006265396
142657,2;0,006255132
142673,8;0,006255132
142690,3;0,006269795
142707;0,006255132
142724,3;0,006247801
142740;0,006262464
142756,6;0,006262464
142773,4;0,006288856
142789,8;0,006307918
142806,3;0,006309384
142822,9;0,006319648
142839,4;0,006332844
142856;0,006351906
142872,7;0,006376833
142889,1;0,006381232
142905,8;0,006381232
142926,9;0,006400293
142938,9;0,006366569
142955,6;0,006360704
142972;0,006347507
142988,6;0,0063739
143005,2;0,006382698
143021,7;0,006412024
143038,2;0,006406158
143054,8;0,006406158
143071,4;0,006410557
143087,9;0,006404692
143104,6;0,006404692
143121,1;0,006410557
143137,6;0,006412024
143154,2;0,006429619
143170,8;0,006428153
143187,3;0,006438416
143204,4;0,006438416
143220,8;0,006453079
143237,4;0,006461877
143253,6;0,006460411
143270,2;0,006457478
143286,8;0,006442816
143303,4;0,006453079
143320,2;0,006453079
143336,4;0,006435484
143353,6;0,006442816
143369,9;0,006442816
143386,2;0,006439883
143403;0,006429619
143419,5;0,00642522
143435,8;0,00642522
143452,8;0,006420821
143469;0,006417889
143486,3;0,006454546
143502,6;0,006458944
143518,7;0,006458944
143535,2;0,006451613
143552,6;0,006478006
143568,5;0,006485337
143584,9;0,006492669
143601,5;0,00648827
143618,1;0,006482405
143634,8;0,00648827
143651,4;0,00648827
143667,8;0,006497067
143684,5;0,006498534
143700,9;0,006498534
143718;0,006494135
143734,2;0,006495601
143750,6;0,0065
143767,5;0,006510264
143783,7;0,006489736
143800,3;0,006473607
143816,9;0,006478006
143839,8;0,006466276
143850;0,006460411
143866,6;0,006486804
143883,1;0,00647654
143899,7;0,006470675
143916,6;0,006479472
143932,8;0,006473607
143949,4;0,006469208
143966;0,006454546
143982,5;0,006461877
143999,1;0,006478006
144015,7;0,006478006
144032,2;0,006478006
144048,8;0,006480938
144065,4;0,0065
144081,9;0,006497067
144098,8;0,0065
144115,4;0,006504399
144131,7;0,006533724
144148,2;0,006527859
144164,8;0,006519062
144181,8;0,006520528
144197,9;0,006524927
144214,5;0,006549853
144231,4;0,006546921
144247,6;0,00655132
144264,6;0,006548387
144280,7;0,00655132
144297,3;0,00655132
144313,9;0,006554252
144330,4;0,006543988
144347;0,006543988
144363,6;0,006560117
144380,1;0,006560117
144396,7;0,006546921
144413,3;0,006538123
144429,8;0,006517596
144446,4;0,00651173
144463;0,006507332
144479,5;0,006514663
144496,1;0,006536657
144512,7;0,006548387
144529,3;0,006555718
144545,9;0,006558651
144562,9;0,006558651
144578,9;0,006554252
144595,5;0,00653959
144612,2;0,006529326
144628,8;0,006519062
144645,2;0,006524927
144661,8;0,006536657
144678,3;0,006545455
144694,9;0,00653959
144711,9;0,006543988
144728,1;0,006526393
144744,6;0,006519062
144761,2;0,006519062
144778,4;0,006519062
144794,3;0,006514663
144810,9;0,006508798
144827,4;0,006517596
144844;0,006517596
144860,6;0,006478006
144877,1;0,006461877
144893,9;0,006417889
144910,3;0,006439883
144926,8;0,006439883
144943,9;0,006448681
144960,2;0,006460411
144976,5;0,006460411
144993,5;0,006448681
145009,7;0,006432551
145026,2;0,006432551
145042,9;0,006441349
145059,4;0,006434018
145075,9;0,006444281
145092,5;0,006456012
145109,4;0,006450147
145125,6;0,006466276
145142,2;0,006461877
145158,8;0,006448681
145175,7;0,006479472
145192;0,006482405
145208,5;0,006482405
145225,3;0,00648827
145241,6;0,00648827
145258,2;0,006480938
145274,7;0,006517596
145291,3;0,006543988
145307,9;0,006557185
145325;0,006557185
145341,1;0,006565982
145357,6;0,00655132
145374,2;0,006596774
145390,9;0,006604106
145407,3;0,006573314
145424,3;0,006579179
145441,3;0,006580645
145457,5;0,006577712
145473,5;0,006555718
145490,1;0,006549853
145506,7;0,006552786
145523,2;0,006543988
145539,8;0,006548387
145556,4;0,006558651
145572,9;0,006546921
145589,6;0,00653959
145606,1;0,006554252
145623,2;0,006554252
145639,2;0,006554252
145655,9;0,006558651
145672,3;0,006542522
145688,9;0,006545455
145713,2;0,006542522
145729,7;0,006564516
145746,3;0,006564516
145762,9;0,006576247
145779,4;0,006568915
145796;0,006576247
145812,6;0,006580645
145829,1;0,006580645
145845,7;0,006582112
145862,3;0,006601173
145878,8;0,006618768
145895,4;0,006607038
145912,2;0,006629033
145928,6;0,006636364
145945,1;0,006680352
145961,7;0,00670088
145978,2;0,00670088
145994,8;0,006687684
146011,4;0,006665689
146028,1;0,006656892
146044,5;0,006651027
146061;0,006651027
146077,6;0,006634898
146094,2;0,006634898
146111,2;0,006618768
146127,3;0,006618768
146143,9;0,006605572
146160,8;0,006611437
146177;0,006618768
146193,6;0,006595308
146210,1;0,006585044
146227,1;0,006602639
146243,3;0,006604106
146260,2;0,006604106
146276,4;0,006608504
146293,2;0,006612903
146309,9;0,006612903
146326,1;0,006598241
146342,8;0,006565982
146359,3;0,006589443
146375,8;0,00658651
146392,6;0,006608504
146409;0,006612903
146425,6;0,006643695
146442,5;0,006645161
146458,7;0,006645161
146475,2;0,006643695
146491,8;0,006653959
146508,7;0,006639296
146525;0,006634898
146541,6;0,006634898
146558;0,006631965
146574,6;0,006629033
146593,9;0,006634898
146610,9;0,006621701
146627;0,006630498
146643,6;0,006618768
146660,1;0,006618768
146676,7;0,006601173
146693,4;0,00661437
146710,1;0,006605572
146726,4;0,006620235
146743;0,006620235
146759,7;0,006634898
146776,3;0,0066261
146792,7;0,006621701
146809,2;0,006636364
146825,8;0,006653959
146842,5;0,006658358
146859,5;0,00666129
146875,5;0,006656892
146892,2;0,006656892
146908,6;0,006681818
146925,2;0,006681818
146941,8;0,006675953
146958,4;0,00664956
146974,9;0,006678886
146991,9;0,006678886
147008,2;0,006689149
147025,1;0,006683284
147041,4;0,006683284
147057,7;0,006689149
147074,3;0,006680352
147090,9;0,006680352
147107,4;0,006678886
147124;0,006678886
147140,7;0,006695015
147157,6;0,006695015
147173,7;0,006683284
147190,3;0,006680352
147206,8;0,006675953
147223,4;0,006664223
147240,4;0,006665689
147256,7;0,006680352
147273,1;0,006681818
147289,7;0,006648094
147306,3;0,006642229
147323;0,006636364
147339,4;0,006639296
147355,9;0,006640763
147372,6;0,006602639
147389,1;0,006604106
147406,2;0,006583578
147422,4;0,006609971
147438,8;0,006608504
147455,4;0,006608504
147472;0,006630498
147488,5;0,006658358
147508,3;0,006653959
147521,6;0,006658358
147538,2;0,006655425
147554,8;0,006653959
147571,5;0,006653959
147588,3;0,006655425
147604,7;0,006634898
147621,6;0,006623167
147637,7;0,006656892
147654,1;0,00666129
147670,7;0,006658358
147687,3;0,006653959
147703,8;0,006642229
147720,4;0,006639296
147737,3;0,006629033
147753,7;0,006612903
147770,1;0,006636364
147786,8;0,006623167
147803,4;0,006634898
147819,8;0,006653959
147836,8;0,006634898
147852,9;0,006621701
147869,5;0,006611437
147886,1;0,006624633
147902,6;0,006634898
147919,2;0,006615836
147935,8;0,006634898
147952,3;0,006592375
147968,9;0,006601173
147985,5;0,006602639
148002,8;0,006595308
148018,6;0,006602639
148035,2;0,006587977
148051,8;0,006587977
148068,5;0,006605572
148085;0,006615836
148101,5;0,006618768
148118;0,006618768
148134,6;0,006593842
148151,1;0,006605572
148168,3;0,006602639
148184,3;0,006612903
148200,8;0,006612903
148217,7;0,006612903
148234;0,006621701
148250,5;0,006620235
148267,1;0,006640763
148283,7;0,006656892
148300,3;0,006662757
148316,8;0,006674487
148333,4;0,006674487
148350;0,00670088
148366,5;0,00670088
148383,1;0,006674487
148399,6;0,006673021
148416,6;0,006643695
148432,8;0,00663783
148449,3;0,006634898
148465,9;0,006629033
148482,5;0,006634898
148499;0,006659824
148515,6;0,00666129
148532,2;0,006662757
148549,2;0,006656892
148565,3;0,006662757
148581,9;0,006652493
148598,4;0,006686217
148615;0,006693549
148631,6;0,006689149
148648,5;0,006717009
148665,2;0,006717009
148681,3;0,006721408
148697,8;0,006717009
148714,6;0,006709678
148731;0,006709678
148747,6;0,006725807
148764,1;0,006725807
148780,7;0,006727273
148798;0,006730205
148814;0,006715543
148830,5;0,006715543
148846,9;0,006721408
148863,6;0,006721408
148880,3;0,006721408
148896,6;0,006680352
148914;0,006690616
148929,8;0,006696481
148946,3;0,006683284
148963,1;0,006692082
148979,5;0,006697947
148996,1;0,006652493
149012,6;0,006631965
149029,2;0,006618768
149045,7;0,006631965
149062,3;0,006642229
149078,9;0,006633431
149095,6;0,0066261
149112,2;0,006620235
149128,6;0,006621701
149145,1;0,006621701
149161,7;0,006590909
149178,3;0,006585044
149194,8;0,006589443
149211,8;0,006589443
149228,4;0,006602639
149244,6;0,006608504
149261,3;0,006608504
149277,9;0,006587977
149294,2;0,006604106
149310,8;0,006601173
149327,6;0,006615836
149343,9;0,006615836
149365,2;0,006607038
149377,1;0,006607038
149393,7;0,0066261
149410,2;0,006617302
149426,8;0,006618768
149443,5;0,006604106
149460,1;0,006604106
149476,5;0,006609971
149493;0,006609971
149509,8;0,006598241
149526,3;0,006538123
149542,7;0,006560117
149559,5;0,00656305
149575,9;0,006552786
149592,7;0,006570381
149609;0,006570381
149625,6;0,006558651
149642,1;0,006567449
149658,7;0,006548387
149675,3;0,006554252
149692,1;0,006554252
149708,4;0,006555718
149725;0,006555718
149741,5;0,006564516
149758,5;0,00653959
149774,7;0,00653959
149791,3;0,006542522
149808,1;0,006554252
149824,4;0,006543988
149841,5;0,006561584
149857,5;0,006564516
149874,4;0,006557185
149890,8;0,00656305
149907,5;0,006558651
149923,8;0,006543988
149940,4;0,006567449
149956,9;0,006558651
149973,5;0,006555718
149990;0,006557185
150006,6;0,006565982
150023,2;0,006570381
150039,8;0,006555718
150056,4;0,006557185
150072,9;0,006548387
150089,5;0,006555718
150106;0,006571847
150122,7;0,006571847
150139,2;0,006561584
150155,9;0,006542522
150173,1;0,006568915
150189;0,006580645
150205,7;0,006595308
150222;0,006571847
150238,6;0,006554252
150255,1;0,006554252
150275,1;0,006541056
150288,3;0,006545455
150304,8;0,00653959
150322,1;0,006517596
150338;0,006510264
150354,5;0,006505865
150371,9;0,006507332
150387,7;0,006526393
150404,4;0,006530792
150421,3;0,006530792
150437,6;0,00653959
150453,9;0,006560117
150470,5;0,006573314
150487;0,006560117
150503,6;0,006561584
150520,3;0,006542522
150536,8;0,006543988
150553,5;0,006542522
150569,9;0,006542522
150586,4;0,006536657
150603;0,006533724
150619,6;0,006523461
150636,2;0,006516129
150652,7;0,006501467
150669,3;0,006497067
150685,9;0,006498534
150702,4;0,006497067
150719;0,006520528
150735,5;0,006516129
150752,7;0,006516129
150768,7;0,006507332
150785,3;0,0065
150801,8;0,006475073
150818,7;0,006463343
150835,5;0,00646481
150851,5;0,006485337
150868,1;0,006491202
150884,6;0,006491202
150901,2;0,006505865
150917,8;0,006501467
150934,6;0,006485337
150951;0,006463343
150967,5;0,006472141
150984,2;0,006492669
151000,8;0,006492669
151017,5;0,006524927
151033,7;0,006519062
151050,6;0,006507332
151067,2;0,006516129
151083,5;0,006530792
151100,2;0,006542522
151116,7;0,006549853
151133,1;0,00653959
151149,9;0,006576247
151166,6;0,006609971
151182,9;0,006612903
151200,2;0,006608504
151216;0,006604106
151232,5;0,006604106
151249,1;0,006621701
151265,8;0,006617302
151282,2;0,006618768
151298,8;0,006618768
151315,4;0,006640763
151332,2;0,006630498
151348,6;0,006627566
151365,1;0,006633431
151381,7;0,006633431
151399;0,006631965
151414,8;0,006631965
151431,3;0,006631965
151447,9;0,006655425
151464,5;0,006722874
151481;0,006769795
151497,7;0,006782991
151514,2;0,006790323
151530,8;0,006790323
151547,3;0,006809384
151563,9;0,006791789
151580,5;0,006800587
151597;0,00678739
151613,8;0,006807918
151630,1;0,006807918
151646,7;0,00681525
151663,3;0,006813783
151679,8;0,006813783
151696,4;0,006848974
151713;0,006875366
151729,5;0,006882698
151746,7;0,006891496
151763,4;0,006891496
151779,2;0,00690176
151795,8;0,006892962
151812,4;0,006884164
151829,2;0,006860704
151845,5;0,006825513
151862,1;0,006840176
151878,6;0,00685044
151895,5;0,00685044
151912,7;0,006865103
151928,3;0,006859238
151944,9;0,006846041
151961,5;0,006866569
151978,1;0,006856305
151994,6;0,006865103
152011,3;0,006865103
152028;0,006868035
152044,4;0,006868035
152060,9;0,006881232
152077,5;0,006904692
152094,2;0,006919355
152110,6;0,006895895
152127,3;0,006881232
152144;0,006881232
152160,3;0,00691349
152176,8;0,00691349
152193,4;0,006900293
152210;0,006914956
152226,5;0,006907625
152243,4;0,006907625
152259,7;0,006919355
152276,4;0,00693695
152292,8;0,00693695
152309,4;0,006947214
152326,1;0,006950147
152342,5;0,006947214
152359,5;0,006951613
152375,9;0,006970675
152392,2;0,006966276
152409;0,006969208
152425,3;0,006945748
152441,9;0,006945748
152458,9;0,006926687
152475;0,006923754
152492;0,006932552
152508,2;0,006938417
152525,1;0,006958944
152541,3;0,006941349
152558;0,006941349
152574,5;0,006948681
152591,6;0,006961877
152608;0,006972141
152624,1;0,006972141
152640,7;0,006975073
152657,3;0,006992669
152674,2;0,006992669
152690,7;0,007005865
152707,1;0,007008798
152724,2;0,007048387
152740,1;0,007085044
152756,7;0,00707478
152773,2;0,007101173
152789,8;0,00713783
152806,4;0,00713783
152823,3;0,007158358
152839,5;0,007165689
152856,5;0,007146628
152872,7;0,007123167
152889,2;0,007114369
152905,8;0,007101173
152922,3;0,007145161
152938,9;0,0071261
152955,5;0,007145161
152972,1;0,007145161
152988,6;0,007162757
153005,2;0,00714956
153022;0,007168622
153038,3;0,007165689
153056,7;0,007156892
153073,3;0,007146628
153090,4;0,007130499
153106,4;0,007139296
153123;0,007142229
153139,5;0,007139296
153156,1;0,007139296
153172,8;0,007099707
153189,4;0,007096774
153205,8;0,007095308
153223,2;0,007112904
153238,9;0,007101173
153255,5;0,007089443
153272,1;0,007108504
153288,7;0,007099707
153305,2;0,00709824
153321,8;0,007093842
153338,3;0,007093842
153355;0,007101173
153371,5;0,007124634
153388;0,007107038
153405,1;0,007105572
153421,9;0,00708651
153437,8;0,007070381
153454,3;0,00705132
153470,9;0,007030792
153487,6;0,007030792
153504;0,007030792
153520,6;0,007016129
153537,7;0,006995601
153553,7;0,007001466
153570,3;0,007008798
153586,8;0,007008798
153603,4;0,007013197
153620;0,006995601
153636,5;0,006986803
153653,1;0,006970675
153669,9;0,006967742
153686,3;0,006954546
153702,8;0,00692522
153719,4;0,006894428
153735,9;0,006894428
153752,5;0,006904692
153769,1;0,006929619
153785,6;0,006967742
153802,2;0,006978006
153818,8;0,006982405
153835,4;0,006985337
153851,9;0,006978006
153868,5;0,00697654
153885;0,006982405
153901,6;0,006973607
153918,2;0,006972141
153934,7;0,006963343
153951,3;0,006963343
153967,9;0,006967742
153984,4;0,006967742
154002,6;0,006964809
154019,2;0,00693695
154035,8;0,006942815
154052,3;0,006947214
154068,9;0,006938417
154085,4;0,006935484
154102;0,006957478
154118,6;0,006961877
154135,1;0,006948681
154151,8;0,006956012
154168,3;0,006945748
154185,5;0,006939883
154201,4;0,006932552
154218;0,006932552
154234,5;0,006934018
154251,1;0,00692522
154267,7;0,00692522
154284,2;0,006897361
154300,8;0,006894428
154318,2;0,006922287
154333,9;0,006922287
154350,5;0,006947214
154367,1;0,006951613
154383,8;0,006953079
154400,8;0,006963343
154416,8;0,006963343
154433,6;0,006973607
154450,7;0,006983871
154466,5;0,006985337
154483,2;0,00698827
154499,6;0,006975073
154516,2;0,006947214
154532,7;0,006942815
154549,3;0,006945748
154566,5;0,006945748
154582,4;0,006935484
154599;0,006935484
154615,7;0,006939883
154632,1;0,00691349
154648,7;0,006887097
154665,3;0,006892962
154681,8;0,006891496
154698,4;0,006846041
154715;0,006821115
154731,7;0,006785924
154749;0,006785924
154764,9;0,006785924
154781,3;0,006771261
154797,8;0,006760997
154814,9;0,006743402
154831;0,006743402
154847,5;0,006746334
154864,1;0,006740469
154880,7;0,006762464
154901,8;0,006760997
154914,3;0,006755132
154930,4;0,006774194
154946,9;0,006769795
154963,5;0,006760997
154980;0,006743402
154996,8;0,006752199
155013,8;0,006740469
155029,7;0,006740469
155046,3;0,006734604
155063,4;0,006734604
155079,4;0,006744868
155096;0,006755132
155112,7;0,006737537
155129,2;0,006743402
155145,8;0,006746334
155162,3;0,006752199
155178,8;0,006740469
155195,7;0,006756598
155212,2;0,006755132
155229,4;0,006755132
155245,1;0,006752199
155261,7;0,006752199
155278,2;0,006740469
155294,8;0,006719941
155311,4;0,006727273
155328;0,006715543
155344,7;0,006705279
155361,5;0,006728739
155377,6;0,006727273
155394,5;0,006722874
155410,8;0,006727273
155427,3;0,006753666
155443,9;0,006733138
155460,5;0,006721408
155477;0,006721408
155493,6;0,006703813
155510,2;0,006703813
155527,5;0,006714076
155543,3;0,006715543
155559,9;0,006715543
155576,7;0,00672434
155593;0,006731672
155609,6;0,006743402
155626,1;0,006743402
155642,8;0,006727273
155659,7;0,006731672
155676,4;0,006722874
155692,4;0,006702346
155709;0,006702346
155725,5;0,006737537
155742,1;0,006746334
155758,8;0,006721408
155775,2;0,006721408
155791,8;0,006711144
155808,8;0,006677419
155824,9;0,006675953
155841,5;0,006681818
155858,1;0,006681818
155875,2;0,006683284
155891,2;0,006681818
155907,8;0,006681818
155924,8;0,006686217
155940,9;0,006674487
155957,5;0,006668622
155974,1;0,006659824
155990,6;0,006651027
156007,2;0,006653959
156023,8;0,006659824
156040,4;0,006646628
156057;0,006645161
156074,1;0,006652493
156090,1;0,006642229
156107;0,006653959
156123,1;0,006667155
156140,1;0,006667155
156156,3;0,00664956
156173;0,006639296
156189,4;0,006640763
156206;0,006629033
156222,6;0,006624633
156239,7;0,0066261
156255,7;0,0066261
156272,3;0,006630498
156289;0,00664956
156305,4;0,006642229
156321,9;0,006629033
156338,5;0,006629033
156355,1;0,006611437
156371,9;0,006615836
156388,3;0,00658651
156404,8;0,00657478
156421,3;0,006604106
156437,9;0,006587977
156454,5;0,006580645
156471,8;0,00657478
156487,6;0,00657478
156504,2;0,006589443
156521,1;0,006592375
156537,3;0,00658651
156553,9;0,006596774
156570,4;0,006642229
156587,2;0,006668622
156603,6;0,006673021
156620,1;0,006677419
156636,7;0,006695015
156653,3;0,006699414
156669,9;0,00670088
156686,4;0,006696481
156703;0,00671261
156719,5;0,006709678
156736,1;0,00673607
156752,7;0,006737537
156769,3;0,006721408
156786,8;0,006714076
156803,4;0,006709678
156820,2;0,006719941
156837,2;0,006722874
156853,1;0,006708211
156869,7;0,00672434
156886,2;0,006727273
156902,8;0,00673607
156919,3;0,006733138
156935,9;0,006717009
156952,5;0,006727273
156969;0,006737537
156985,6;0,006722874
157002,2;0,006717009
157018,7;0,006717009
157035,5;0,006733138
157051,9;0,006744868
157068,4;0,006760997
157085;0,006758064
157102;0,006762464
157118,2;0,006766862
157134,7;0,00676393
157151,3;0,006740469
157167,8;0,006750733
157184,4;0,006750733
157201,6;0,006734604
157217,5;0,00672434
157234,1;0,006705279
157250,8;0,00670088
157267,2;0,006684751
157283,8;0,00670088
157300,4;0,006709678
157316,9;0,006708211
157333,8;0,006696481
157350,1;0,006696481
157367;0,00670088
157383,2;0,00670088
157400,7;0,006687684
157416,3;0,006675953
157433,4;0,006655425
157449,5;0,006656892
157466,5;0,00666129
157482,7;0,006645161
157499,2;0,006627566
157515,8;0,006629033
157532,4;0,006624633
157549,6;0,006624633
157565,4;0,006617302
157582;0,006623167
157598,6;0,006624633
157615,4;0,006645161
157631,7;0,006636364
157648,3;0,006639296
157665,3;0,006642229
157681,4;0,006652493
157698;0,006653959
157714,5;0,006681818
157731,9;0,006664223
157747,7;0,006665689
157764,3;0,006643695
157781,3;0,006651027
157797,4;0,006646628
157813,9;0,006633431
157831,2;0,006633431
157847,2;0,006631965
157863,6;0,006665689
157880,3;0,006645161
157896,8;0,006639296
157913,3;0,006651027
157930;0,006655425
157946,5;0,006651027
157963;0,006652493
157979,6;0,006652493
157996,7;0,006655425
158012,7;0,006680352
158029,7;0,006681818
158045,9;0,006689149
158062,4;0,006689149
158079,4;0,006705279
158095,7;0,006708211
158112,1;0,006706745
158128,8;0,006686217
158145,4;0,006697947
158161,8;0,006706745
158178,4;0,006725807
158195,4;0,006719941
158212,2;0,00673607
158228,6;0,006725807
158244,7;0,006750733
158261,2;0,006750733
158277,8;0,006734604
158294,5;0,006749267
158310,9;0,006758064
158327,5;0,006785924
158344,1;0,006772727
158360,6;0,006758064
158377,6;0,006758064
158394;0,006788856
158410,3;0,006788856
158427,4;0,00679912
158443,6;0,006818182
158460,1;0,006818182
158476,8;0,006816715
158493,2;0,006825513
158509,8;0,006796188
158526,3;0,00679912
158542,9;0,00678739
158559,4;0,006777126
158576,6;0,00677566
158592,6;0,00678739
158609,8;0,00678739
158626,4;0,006790323
158642,3;0,006765396
158658,8;0,006774194
158676,4;0,006793255
158698,1;0,006791789
158708,5;0,00677566
158725,1;0,006780059
158742,1;0,006788856
158758,3;0,006746334
158774,8;0,006749267
158791,4;0,006747801
158808,1;0,006756598
158824,6;0,006730205
158841,3;0,006721408
158857,6;0,006722874
158874,2;0,006725807
158891,4;0,006719941
158907,3;0,006722874
158924;0,006721408
158941,1;0,006722874
158957,1;0,006715543
158973,7;0,006718475
158990,2;0,006718475
159006,8;0,006703813
159023,3;0,006705279
159039,9;0,006705279
159056,4;0,006708211
159073,4;0,006708211
159089,6;0,00670088
159106,1;0,006695015
159123,2;0,006699414
159139,3;0,00672434
159155,9;0,006719941
159173;0,006727273
159189;0,006741935
159205,5;0,006756598
159222,1;0,006752199
159238,7;0,006752199
159255,2;0,00676393
159272,3;0,006759531
159288,5;0,006766862
159304,9;0,006747801
159321,7;0,006759531
159338,1;0,006759531
159354,6;0,006760997
159371,2;0,006774194
159387,8;0,006797654
159404,3;0,00678739
159421,4;0,00678739
159438;0,006791789
159454;0,006807918
159470,6;0,006800587
159487,2;0,006829912
159503,7;0,006840176
159520,3;0,006841642
159536,9;0,006834311
159553,4;0,006831378
159570;0,006829912
159586,6;0,006818182
159603,1;0,006806452
159620;0,006809384
159636,3;0,00681525
159652,8;0,00681525
159669,7;0,006834311
159686;0,006824047
159702,5;0,00682698
159719,5;0,00682698
159736;0,006828446
159752,3;0,00682698
159768,8;0,006835777
159785,4;0,006866569
159801,9;0,006882698
159818,5;0,006882698
159835,1;0,006888563
159851,6;0,006875366
159868,2;0,006914956
159884,8;0,006948681
159901,3;0,006948681
159917,9;0,006957478
159934,5;0,006945748
159951;0,006953079
159967,6;0,006958944
159984,2;0,006957478
160000,7;0,006958944
160017,7;0,006939883
160034,2;0,006931085
160050,4;0,006922287
160067;0,006920821
160083,6;0,006909091
160100,2;0,006890029
160116,7;0,006879766
160133,3;0,006903226
160150;0,006879766
160166,5;0,006876833
160183,4;0,006865103
160199,5;0,006876833
160216,1;0,006863636
160232,9;0,006854839
160249,2;0,006846041
160265,8;0,00683871
160282,4;0,006844575
160299,1;0,006844575
160315,5;0,006806452
160332,1;0,006778592
160348,6;0,006790323
160365,9;0,00679912
160381,8;0,00679912
160398,3;0,006793255
160415,5;0,006760997
160431,6;0,006731672
160448,1;0,006739003
160464,6;0,006740469
160481,2;0,006749267
160497,9;0,006749267
160514,3;0,006771261
160530,9;0,006750733
160547,4;0,006753666
160564;0,006744868
160580,8;0,00671261
160597,3;0,006717009
160613,7;0,006728739
160630,8;0,006727273
160646,8;0,006740469
160663,5;0,006746334
160680,1;0,006730205
160696,5;0,006741935
160713,4;0,006744868
160729,7;0,006744868
160746,2;0,006771261
160762,8;0,006788856
160779,7;0,006806452
160795,9;0,00681085
160812,5;0,00681085
160829,1;0,006791789
160845,7;0,006802053
160862,3;0,00679912
160878,8;0,006821115
160895,8;0,006818182
160911,9;0,006832845
160928,5;0,00685044
160945;0,006853372
160961,6;0,006829912
160978,2;0,006829912
160994,7;0,006835777
161011,3;0,006835777
161027,9;0,006834311
161044,4;0,006851906
161061,8;0,006859238
161077,6;0,00685044
161094,1;0,006834311
161110,7;0,006834311
161128,1;0,006831378
161143,8;0,006819648
161160,4;0,006831378
161177,3;0,006824047
161193,5;0,00682698
161210,1;0,006816715
161226,8;0,006824047
161243,2;0,006822581
161259,8;0,006847507
161276,9;0,00686217
161292,9;0,006857771
161309,5;0,00686217
161326,1;0,006865103
161342,8;0,006865103
161359,3;0,006865103
161375,8;0,006857771
161392,8;0,006853372
161408,9;0,006859238
161425,6;0,006853372
161442;0,006873901
161458,6;0,006851906
161475,4;0,006857771
161491,9;0,006844575
161508,3;0,006856305
161525,4;0,006872434
161541,9;0,006872434
161558;0,006854839
161574,6;0,00686217
161591,3;0,006857771
161607,8;0,006863636
161624,3;0,006857771
161640,8;0,006857771
161657,5;0,006865103
161674;0,006869501
161690,5;0,006890029
161707,1;0,006891496
161723,7;0,006887097
161740,2;0,006888563
161756,8;0,006859238
161774,3;0,006859238
161790,9;0,006819648
161806,5;0,006819648
161823,1;0,006797654
161839,7;0,006818182
161856,2;0,006829912
161872,8;0,006816715
161889,3;0,00679912
161905,9;0,006796188
161922,5;0,006813783
161939;0,006803519
161955,6;0,006813783
161972,2;0,006797654
161988,7;0,006807918
162005,5;0,00681085
162021,9;0,006818182
162038,4;0,00681085
162055,3;0,006802053
162072;0,006816715
162088,1;0,006828446
162104,9;0,006831378
162121,8;0,006831378
162137,8;0,006802053
162154,5;0,006848974
162171;0,006844575
162187,5;0,006834311
162204,1;0,00682698
162220,8;0,00683871
162237,7;0,006831378
162253,8;0,006832845
162270,4;0,006832845
162286,9;0,006834311
162303,5;0,006834311
162320,3;0,00683871
162336,6;0,006860704
162353,2;0,006882698
162370,4;0,006900293
162386,3;0,006879766
162403,2;0,006897361
162419,5;0,006903226
162436,3;0,006912024
162452,9;0,006914956
162469,2;0,006929619
162485,9;0,006929619
162506,8;0,00690176
162518,9;0,00690176
162535,5;0,006897361
162552,5;0,006929619
162569,4;0,00691349
162585,1;0,006917889
162601,7;0,00691349
162618,3;0,00691349
162634,9;0,006904692
162651,4;0,006912024
162668,1;0,006920821
162684,5;0,00692522
162701,3;0,00692522
162717,7;0,006928152
162734,2;0,006904692
162751,6;0,006891496
162767,4;0,006875366
162783,9;0,006875366
162800,5;0,006879766
162817,1;0,006873901
162834,3;0,006895895
162850,2;0,006892962
162866,8;0,006882698
162883,3;0,006876833
162899,9;0,006876833
162916,5;0,006876833
162933;0,006876833
162949,6;0,006873901
162966,6;0,006866569
162982,7;0,006870968
162999,9;0,006873901
163015,9;0,006873901
163032,5;0,006859238
163049;0,006857771
163065,6;0,006876833
163082,1;0,006891496
163098,9;0,006900293
163115,6;0,006897361
163131,8;0,006912024
163148,4;0,006892962
163165,7;0,006900293
163181,5;0,006894428
163198,1;0,006882698
163214,7;0,006898827
163231,6;0,006916422
163247,8;0,006904692
163265,3;0,006904692
163281,5;0,006865103
163297,5;0,006859238
163314,1;0,00685044
163330,8;0,006860704
163347,4;0,006863636
163363,8;0,006837244
163380,3;0,006847507
163397,1;0,006843109
163413,5;0,006828446
163430;0,006819648
163446,6;0,00683871
163468,1;0,006834311
163479,7;0,006873901
163496,3;0,006879766
163512,9;0,006866569
163529,5;0,006866569
163546;0,006859238
163562,6;0,006859238
163579,1;0,006869501
163595,7;0,006887097
163612,3;0,006888563
163629,2;0,006900293
163645,4;0,006882698
163662;0,006882698
163678,5;0,006865103
163695,1;0,006868035
163712,7;0,00686217
163728,2;0,006868035
163744,8;0,006868035
163761,4;0,006875366
163778,3;0,006892962
163794,5;0,006904692
163811,3;0,006917889
163827,6;0,006914956
163844,5;0,006866569
163860,8;0,006829912
163877,3;0,006835777
163894,2;0,006831378
163910,5;0,006832845
163927;0,006819648
163943,6;0,006819648
163960,6;0,006804985
163976,7;0,006822581
163993,6;0,006790323
164009,9;0,006797654
164026,6;0,006784458
164043,2;0,006780059
164059,6;0,00678739
164076,1;0,006782991
164092,7;0,006771261
164109,3;0,006785924
164125,9;0,00678739
164142,4;0,006771261
164159,3;0,006790323
164175,5;0,006797654
164192,5;0,006797654
164208,7;0,006806452
164225,2;0,006807918
164241,8;0,006841642
164258,4;0,006866569
164274,9;0,006872434
164291,5;0,006881232
164308,2;0,006882698
164324,9;0,006897361
164341,2;0,006895895
164357,8;0,006878299
164374,7;0,006879766
164390,9;0,006884164
164408,1;0,006868035
164429,8;0,006873901
164440,6;0,006846041
164457,2;0,006848974
164473,7;0,00685044
164490,3;0,00685044
164506,9;0,006847507
164523,4;0,006869501
164540,6;0,006853372
164556,9;0,006844575
164573,7;0,006844575
164589,7;0,006853372
164606,3;0,006844575
164622,9;0,006853372
164639,4;0,006868035
164656;0,006863636
164672,5;0,006869501
164689,6;0,006869501
164705,7;0,006869501
164722,2;0,006840176
164738,8;0,006837244
164755,4;0,006837244
164772;0,006866569
164788,5;0,006873901
164805,3;0,006881232
164821,6;0,006881232
164838,2;0,006876833
164854,8;0,006876833
164871,3;0,006876833
164888,1;0,006885631
164904,5;0,006900293
164921;0,006890029
164937,6;0,006876833
164954,4;0,006873901
164971;0,006873901
164987,3;0,006857771
165003,9;0,006859238
165020,6;0,006848974
165037;0,006828446
165053,6;0,006846041
165070,4;0,006834311
165086,7;0,006832845
165104;0,006825513
165119,8;0,006821115
165136,4;0,006812317
165153;0,00682698
165169,5;0,006806452
165186,1;0,006806452
165202,7;0,006824047
165219,7;0,006797654
165235,8;0,006794721
165252,4;0,006793255
165268,9;0,006812317
165285,5;0,00682698
165302,1;0,006829912
165318,6;0,006834311
165335,2;0,006813783
165351,8;0,006824047
165368,5;0,006800587
165384,9;0,006809384
165406,5;0,006835777
165423,4;0,006846041
165439,6;0,006851906
165456,2;0,006851906
165473,7;0,006854839
165489,3;0,00685044
165505,9;0,00685044
165522,8;0,006774194
165539,3;0,006793255
165555,6;0,006756598
165572,2;0,006759531
165588,7;0,006759531
165605,3;0,00673607
165621,9;0,006730205
165638,4;0,006737537
165655;0,006741935
165671,9;0,006747801
165688,1;0,006737537
165704,7;0,006737537
165721,3;0,006728739
165738,1;0,006739003
165754,4;0,006733138
165771;0,006744868
165787,9;0,006733138
165804,1;0,006728739
165820,6;0,006737537
165837,2;0,006755132
165853,8;0,00676393
165870,3;0,006758064
165886,9;0,006743402
165903,6;0,006765396
165920,2;0,006758064
165936,8;0,006758064
165953,9;0,006793255
165969,9;0,00679912
165986,5;0,00679912
166003;0,006831378
166019,6;0,006844575
166036,6;0,006860704
166052,7;0,00686217
166069,5;0,006859238
166086,3;0,006859238
166102,8;0,006882698
166119,1;0,006882698
166135,6;0,006885631
166152,1;0,006879766
166168,7;0,006879766
166185,3;0,006846041
166201,9;0,006847507
166218,4;0,006835777
166235;0,006818182
166251,8;0,006834311
166268,1;0,006816715
166284,8;0,006816715
166301,2;0,006788856
166324,9;0,006758064
166337,3;0,006749267
166353,9;0,00676393
166370,5;0,006746334
166387,3;0,00672434
166403,9;0,006744868
166420,2;0,006743402
166436,7;0,006743402
166453,3;0,006774194
166469,8;0,006759531
166486,9;0,006778592
166503;0,006793255
166519,5;0,006774194
166536,1;0,006780059
166552,7;0,006780059
166569,3;0,006806452
166586,3;0,00681085
166602,4;0,006816715
166619;0,006816715
166635,5;0,006807918
166652,1;0,006793255
166669,3;0,006794721
166685,2;0,006781525
166701,9;0,006781525
166718,3;0,006828446
166735,1;0,006828446
166751,9;0,006828446
166768;0,006828446
166784,6;0,006829912
166801,4;0,006818182
166817,7;0,006851906
166834,3;0,006860704
166850,9;0,00685044
166867,6;0,00685044
166884;0,006847507
166900,6;0,006843109
166917,1;0,006841642
166933,7;0,006853372
166950,5;0,006853372
166966,8;0,006854839
166983,4;0,006875366
167000,4;0,006870968
167016,5;0,006876833
167033,1;0,006890029
167049,7;0,006890029
167066,5;0,006860704
167082,9;0,006868035
167099,4;0,006873901
167116,5;0,006856305
167132,7;0,006853372
167149,1;0,006841642
167166,4;0,006835777
167182,4;0,00686217
167198,8;0,006860704
167215,3;0,006865103
167233,8;0,006873901
167248,5;0,006873901
167265;0,006875366
167281,7;0,006891496
167298,2;0,00690176
167314,8;0,006916422
167331,5;0,00692522
167347,9;0,00693695
167364,8;0,006970675
167381,2;0,00697654
167397,6;0,006978006
167414,1;0,006978006
167431,5;0,00697654
167447,3;0,006980938
167464,8;0,006991202
167481,1;0,00701173
167497;0,00701173
167513,6;0,00701173
167530,6;0,007
167546,9;0,007024927
167563,9;0,007016129
167580,1;0,007016129
167596,4;0,007024927
167613;0,007041056
167629,5;0,007032258
167646,1;0,007002932
167662,8;0,007002932
167679,2;0,00701173
167695,8;0,007010264
167712,3;0,007019062
167728,9;0,007008798
167745,6;0,007029326
167762;0,007024927
167778,9;0,007020528
167795,2;0,007020528
167811,7;0,00701173
167828,4;0,007016129
167845,1;0,007035191
167861,7;0,007035191
167878,1;0,007055718
167894,6;0,007092375
167911,5;0,007096774
167927,7;0,007105572
167944,3;0,007121701
167960,8;0,007102639
167978;0,007068915
167994,7;0,007082112
168010,6;0,007054252
168027,5;0,007055718
168043,7;0,007055718
168060,2;0,007055718
168077,3;0,00706305
168093,5;0,007070381
168110;0,007064516
168126,7;0,007067449
168143,1;0,007098241
168159,9;0,007117302
168176,2;0,00708651
168192,8;0,007067449
168209,5;0,007058651
168225,9;0,007065983
168242,9;0,00708651
168259,2;0,007082112
168276;0,007098241
168292,2;0,007109971
168308,8;0,007107038
168325,9;0,007124634
168341,9;0,0071261
168358,4;0,007142229
168375,5;0,00716129
168391,6;0,007152493
168408,2;0,007136364
168424,9;0,007134898
168441,3;0,007155425
168458,3;0,007155425
168474,4;0,007177419
168491;0,00714956
168507,5;0,007143695
168524,1;0,007121701
168540,8;0,007121701
168557,5;0,007121701
168573,8;0,007107038
168590,5;0,007148094
168606,9;0,007129032
168623,6;0,007129032
168640,1;0,007153959
168656,6;0,007153959
168673,2;0,007145161
168689,8;0,007145161
168706,6;0,007129032
168722,9;0,007109971
168739,5;0,007077713
168756;0,007089443
168772,6;0,00708651
168789,2;0,007076246
168806;0,007064516
168822,4;0,007064516
168838,9;0,007048387
168855,8;0,007039589
168872;0,007027859
168888,6;0,007032258
168905,3;0,007032258
168921,7;0,007061583
168938,6;0,007061583
168954,8;0,007067449
168971,5;0,007099707
168988;0,007099707
169004,7;0,007096774
169021,1;0,007096774
169038,7;0,007095308
169054,3;0,007134898
169070,8;0,007140763
169095;0,007142229
169103,9;0,007134898
169120,7;0,007133431
169137,2;0,007146628
169153,6;0,007146628
169170,2;0,007156892
169186,8;0,007159824
169203,3;0,007148094
169219,9;0,007148094
169236,5;0,007151026
169253;0,007155425
169269,7;0,007130499
169286,2;0,007133431
169302,7;0,007121701
169319,5;0,007121701
169336;0,007114369
169352,8;0,007114369
169369;0,007162757
169385,6;0,007143695
169402,1;0,00713783
169418,7;0,00713783
169435,4;0,007148094
169451,8;0,007108504
169468,4;0,007101173
169485;0,007093842
169501,5;0,007120235
169518,1;0,007164223
169534,8;0,007164223
169551,2;0,007164223
169567,8;0,007165689
169584,4;0,007151026
169600,9;0,00716129
169617,8;0,007162757
169634,1;0,007159824
169650,6;0,007203812
169667,2;0,007217009
169683,8;0,007195015
169700,3;0,007195015
169716,9;0,007192082
169733,5;0,007180352
169750,1;0,007177419
169767,2;0,007174487
169783,2;0,007184751
169799,8;0,007190616
169816,3;0,007205279
169833,2;0,00720088
169849,6;0,00720088
169866;0,007158358
169882,6;0,007143695
169899,1;0,007140763
169916;0,007131965
169932,3;0,007131965
169948,9;0,007120235
169965,6;0,007121701
169982;0,007121701
169998,6;0,007118769
170015,1;0,007124634
170035,7;0,007129032
170049,2;0,007133431
170065,7;0,0071261
170083,4;0,007115836
170099,1;0,007121701
170115,5;0,007129032
170132,1;0,007130499
170148,6;0,007102639
170165,1;0,007109971
170181,7;0,007123167
170198,3;0,007153959
170214,8;0,007155425
170231,5;0,007158358
170248;0,007156892
170264,6;0,007142229
170281,1;0,007120235
170297,7;0,007109971
170314,4;0,007104106
170330,8;0,007104106
170347,4;0,007121701
170363,9;0,007105572
170380,8;0,007115836
170397,3;0,007139296
170414;0,007139296
170430,2;0,007131965
170446,8;0,007099707
170463,3;0,007065983
170480,1;0,007115836
170496,7;0,007158358
170513;0,007168622
170529,6;0,007178886
170546,2;0,007178886
170562,7;0,007190616
170579,3;0,007190616
170596,3;0,007197947
170612,5;0,007197947
170629;0,007193549
170645,8;0,00720088
170662,1;0,007181818
170678,8;0,007196481
170695,3;0,007199414
170711,9;0,007199414
170728,4;0,00718915
170745;0,007218475
170761,8;0,007230205
170778,5;0,007244868
170794,7;0,007243402
170811,6;0,007227273
170828,6;0,007227273
170844,8;0,007233138
170861,1;0,007233138
170877,5;0,007255132
170894,6;0,007256598
170910,7;0,007253666
170927,2;0,007253666
170943,8;0,007253666
170960,3;0,007259531
170977;0,007241935
170993,5;0,007241935
171010,2;0,00726393
171026,6;0,007282991
171043,3;0,007277126
171059,7;0,00727566
171076,8;0,007307918
171092,9;0,007296188
171109,5;0,007297654
171126,4;0,007329912
171142,6;0,007329912
171159,4;0,00736217
171175,7;0,007331378
171192,3;0,007376833
171208,8;0,007381232
171225,8;0,007395895
171242;0,007394428
171258,5;0,007378299
171275,1;0,007378299
171291,9;0,007378299
171308,2;0,00736217
171324,8;0,007341642
171341,4;0,007343109
171357,9;0,007325513
171374,5;0,007321115
171391,8;0,007300586
171408,2;0,007299121
171424,7;0,007299121
171440,8;0,007310851
171457,4;0,007346041
171473,9;0,007343109
171490,5;0,007356305
171507,3;0,007334311
171523,6;0,007285924
171540,6;0,007256598
171556,7;0,007269795
171573,3;0,007265396
171589,9;0,007271261
171606,4;0,007258065
171623;0,007258065
171639,6;0,007253666
171656,1;0,007259531
171672,7;0,00723607
171689,3;0,007255132
171705,8;0,0072478
171722,8;0,007271261
171739;0,007255132
171755,5;0,007269795
171772,7;0,007249267
171789,1;0,00723607
171805,3;0,007244868
171822;0,007256598
171838,4;0,007274194
171855;0,007296188
171871,8;0,007296188
171888,1;0,007316716
171904,6;0,007324047
171921,4;0,007360704
171938,1;0,007347507
171954,8;0,007348974
171971,2;0,007376833
171987,5;0,007378299
172004;0,007387097
172020,8;0,007360704
172037,2;0,007363637
172053,7;0,007366569
172070,4;0,007370968
172086,9;0,007384164
172103,5;0,007388563
172120;0,0073739
172137,4;0,007376833
172153,2;0,007382698
172169,7;0,007379766
172186,3;0,007344575
172203,6;0,00735044
172219,4;0,00732698
172236;0,00732698
172252,5;0,007343109
172269,1;0,00736217
172285,7;0,007363637
172302,2;0,00740176
172318,8;0,007404692
172335,6;0,007390029
172351,9;0,007379766
172368,5;0,007357772
172385,1;0,007357772
172401,6;0,007366569
