77251,3;0,005250733
77267,86;0,005243402
77284,42;0,005240469
77301,47;0,005227273
77317,59;0,005234604
77334,69;0,005243402
77350,7;0,005246334
77367,27;0,005258065
77383,83;0,005258065
77400,41;0,005282991
77416,97;0,005282991
77433,52;0,005290322
77450,09;0,005288857
77467,28;0,005278592
77483,24;0,005278592
77500,09;0,005280059
77516,36;0,00528739
77532,95;0,00528739
77549,73;0,005285924
77566,47;0,005285924
77582,91;0,005294722
77599,37;0,005290322
77615,76;0,005302053
77632,33;0,005315249
77649,45;0,005324047
77665,46;0,005324047
77682,05;0,005318182
77698,66;0,005316716
77715,16;0,005296188
77731,73;0,005296188
77748,29;0,005285924
77765;0,005291789
77781,42;0,005290322
77798,23;0,005285924
77814,56;0,005293255
77831,13;0,005291789
77847,7;0,005293255
77864,48;0,005285924
77881,45;0,005278592
77897,39;0,005282991
77914,27;0,005282991
77932,79;0,005281525
77947,09;0,005278592
77963,66;0,005277126
77980,23;0,005277126
77996,97;0,005272727
78013,36;0,00527566
78029,93;0,005284457
78046,59;0,005277126
78063,06;0,005277126
78079,74;0,005274194
78096,19;0,005266862
78112,77;0,005268328
78129,33;0,005284457
78146,02;0,005285924
78163,3;0,005280059
78179,03;0,00527566
78196,06;0,005278592
78212,32;0,005271261
78229,12;0,005274194
78245,44;0,005282991
78261,87;0,005284457
78278,43;0,005296188
78295;0,005296188
78311,56;0,005294722
78328,13;0,005294722
78344,7;0,005312317
78361,66;0,005288857
78377,84;0,005306452
78394,53;0,005303519
78410,97;0,005293255
78427,53;0,005282991
78444,09;0,005281525
78460,66;0,005281525
78477,23;0,005268328
78493,8;0,005274194
78510,38;0,005272727
78526,92;0,005262463
78543,89;0,005268328
78560,06;0,005285924
78577,05;0,005285924
78593,2;0,005272727
78609,77;0,005274194
78626,33;0,00529912
78643,17;0,005290322
78659,46;0,005288857
78676,41;0,00528739
78692,59;0,005310851
78709,24;0,005306452
78725,77;0,005315249
78742,31;0,005310851
78758,88;0,005294722
78775,45;0,00529912
78792,52;0,00528739
78808,57;0,005280059
78825,13;0,005282991
78841,96;0,005281525
78858,42;0,005300587
78875,37;0,00529912
78891,44;0,005303519
78908,01;0,005303519
78924,55;0,005290322
78941,33;0,005293255
78957,67;0,00528739
78974,23;0,00528739
78991,07;0,005282991
79009,35;0,005265396
79025,92;0,005293255
79042,66;0,005315249
79059,07;0,005313783
79075,63;0,005321114
79092,48;0,005340176
79108,95;0,005343108
79125,47;0,00533871
79141,9;0,005346041
79158,47;0,005351906
79175,02;0,00536217
79192,4;0,005385631
79208,17;0,005390029
79224,75;0,005387097
79241,41;0,005384164
79258,33;0,005444282
79258,33;0,005403226
79278,33;0,005406159
79295,43;0,005398827
79311,46;0,005392962
79328,02;0,005384164
79344,83;0,005397361
79361,44;0,005419355
79377,73;0,005417889
79394,3;0,005419355
79410,88;0,00541349
79427,43;0,005410557
79444,41;0,005404692
79460,75;0,005403226
79477,13;0,005407625
79494,33;0,005428153
79510,68;0,005428153
79526,83;0,005423754
79543,4;0,005414956
79560,17;0,005428153
79576,53;0,005442815
79593,09;0,005442815
79609,98;0,00544868
79626,23;0,005439883
79643,01;0,005438417
79659,38;0,005438417
79676,19;0,005432551
79692,76;0,005419355
79709,06;0,005416422
79726,22;0,005416422
79742,2;0,00543695
79758,9;0,005450147
79775,33;0,005445748
79791,89;0,00543695
79808,59;0,005432551
79825,03;0,005435484
79841,59;0,005435484
79858,16;0,005435484
79874,73;0,005450147
79891,53;0,005450147
79908,03;0,005473607
79924,48;0,005466276
79941,33;0,005467742
79957,55;0,005469208
79974,88;0,005469208
79990,7;0,005467742
80008,07;0,005472141
80024,29;0,005466276
80040,39;0,005464809
80056,96;0,005470674
80074,19;0,005489736
80090,09;0,005483871
80106,66;0,005483871
80123,4;0,005483871
80456,73;0,005404692
80507,93;0,005366569
80524,5;0,005376833
80547,36;0,005378299
80563,93;0,005378299
80580,5;0,005400294
80597,05;0,005397361
80613,63;0,005419355
80639,07;0,005414956
80655,7;0,005457478
80672,2;0,005457478
80688,77;0,005450147
80705,34;0,005450147
80722,19;0,005441349
80738,48;0,005442815
80755,05;0,005429619
80771,68;0,005431085
80795,23;0,00542522
80811,91;0,005422288
80829,22;0,005416422
80845,12;0,005410557
80862,09;0,005392962
80878,27;0,005410557
80894,66;0,005403226
80911,2;0,005403226
80928,29;0,005428153
80950,4;0,005438417
80966,98;0,005438417
80983,55;0,005445748
81000,11;0,005453079
81016,67;0,005451613
81033,43;0,00544868
81049,84;0,005451613
81066,38;0,005458944
81082,94;0,005470674
81105,91;0,005472141
81122,88;0,005494135
81139,34;0,005501466
81155,61;0,005501466
81177,52;0,005463343
81209,2;0,005485337
81232,77;0,005479472
81282,36;0,005485337
81305,27;0,005491202
81321,84;0,005494135
81338,41;0,005476539
81355,46;0,005486804
81371,55;0,00548827
81388,12;0,005482405
81404,69;0,005483871
81429,34;0,005486804
81445,91;0,005482405
81462,55;0,00548827
81479,03;0,005498534
81495,61;0,005510264
81512,17;0,005475074
81529,09;0,005467742
81545,3;0,005469208
81562,05;0,005469208
81584,46;0,00548827
81601,03;0,005498534
81617,85;0,0055
81634,16;0,005505865
81651,3;0,005505865
81667,29;0,005486804
81683,86;0,005479472
81700,79;0,00548827
81716,98;0,005494135
81749,13;0,0055
81783,61;0,005542522
81817,59;0,005535191
81841,11;0,005533725
81857,69;0,00553959
81874,24;0,005543988
81913,28;0,00556305
81932,57;0,005548387
81949,13;0,005579179
81965,7;0,005576246
81982,27;0,005583578
81999,23;0,005593842
82015,41;0,005608505
82032,15;0,005623167
82055,03;0,005617302
82072,23;0,005617302
82088,16;0,005621701
82104,91;0,005624633
82121,3;0,005634897
82138,24;0,005620235
82154,44;0,00561437
82171,43;0,005618768
82187,78;0,005617302
82209,1;0,005617302
82225,67;0,005623167
82242,24;0,005634897
82258,8;0,005645161
82275,38;0,00564956
82292,03;0,005636364
82308,5;0,005642229
82325,39;0,005640762
82342,13;0,005656892
82365,81;0,005665689
82382,38;0,005655425
82398,95;0,005662757
82415,52;0,005684751
82432,09;0,00571261
82448,66;0,005678886
82465,22;0,005686217
82481,78;0,005714076
82498,35;0,00572434
82519,5;0,005717009
82536,06;0,005734604
82552,63;0,005727273
82569,2;0,005755132
82586,66;0,005750733
82602,38;0,005753666
82619,59;0,005730205
82635,66;0,005725807
82655,23;0,005703812
82678,95;0,005696481
82695,52;0,005705279
82712,13;0,00570088
82728,96;0,00570088
82745,25;0,005730205
82761,79;0,005722874
82779,13;0,005721408
82794,93;0,005721408
82811,49;0,005740469
82828,13;0,005740469
82850,08;0,005743402
82866,92;0,005725807
82883,54;0,005727273
82899,78;0,005719942
82916,6;0,005730205
82932,91;0,005731672
82949,53;0,005733138
82966,04;0,005717009
82982,61;0,005717009
83005,7;0,005722874
83022,27;0,005717009
83039,32;0,005702346
83055,45;0,005696481
83071,96;0,005686217
83088,53;0,005693548
83105,09;0,005693548
83121,66;0,005677419
83138,23;0,005659824
83160,38;0,005664223
83176,96;0,005652493
83193,52;0,005681818
83210,09;0,005670088
83226,66;0,005658358
83243,23;0,005662757
83260,04;0,005662757
83276,35;0,005662757
83292,91;0,005662757
83317,42;0,005695015
83334,79;0,005703812
83350,57;0,005730205
83367,13;0,005728739
83384,13;0,005734604
83400,26;0,005750733
83417,19;0,005747801
83433,68;0,005747801
83450,08;0,00577566
83482,38;0,005796188
83498,96;0,005800587
83515,64;0,005815249
83532,08;0,005826979
83548,66;0,005846041
83565,22;0,005843109
83581,79;0,005826979
83598,35;0,005824047
83614,91;0,005824047
83636,78;0,005821114
83653,7;0,005804985
83670,69;0,005809384
83686,56;0,005831379
83703,1;0,005825514
83719,62;0,005840176
83736,18;0,005829912
83752,88;0,005825514
83769,32;0,005818182
83826,29;0,005806452
83842,86;0,005812317
83859,55;0,005816716
83875,99;0,005813783
83892,55;0,005816716
83909,68;0,005828446
83925,69;0,005819648
83948,35;0,005807918
83964,94;0,005784458
83981,48;0,005784458
83998,77;0,005785924
84014,73;0,005769795
84031,18;0,005771261
84047,75;0,005769795
84064,31;0,00576393
84081,3;0,005769795
84104,95;0,005768328
84121,52;0,005769795
84138,61;0,005774193
84160,48;0,005759531
84177,05;0,005760997
84193,82;0,005771261
84210,17;0,005762463
84226,95;0,005766862
84246,14;0,005774193
84268,54;0,005766862
84285,13;0,005766862
84301,74;0,005759531
84318,64;0,005737537
84335,54;0,005722874
84351,95;0,005727273
84368,86;0,005711144
84384,64;0,005697947
84401,65;0,005692082
84418,16;0,005692082
84444,11;0,005706745
84460,69;0,005706745
84477,25;0,005702346
84494,77;0,005699413
84510,42;0,00571261
84526,95;0,005703812
84543,51;0,005709677
84560,09;0,005719942
84576,65;0,005715542
84601,73;0,005686217
84618,76;0,005692082
84634,86;0,005680352
84651,94;0,005692082
84667,99;0,005697947
84684,56;0,005702346
84701,13;0,005696481
84718,35;0,005681818
84734,46;0,005675953
84755,25;0,005675953
84771,82;0,005661291
84788,76;0,005645161
84804,95;0,005639296
84821,52;0,005639296
84838,08;0,005642229
84854,66;0,005618768
84871,23;0,005618768
84887,93;0,005633431
84909,86;0,005633431
84926,43;0,005636364
84943,01;0,005627566
84959,57;0,005595308
84976,13;0,005543988
84992,7;0,005558651
85009,39;0,005555719
85025,84;0,005557185
85042,4;0,005554252
85073,52;0,00556305
85090,08;0,005549854
85106,73;0,005545455
85123,22;0,005538123
85139,79;0,005552786
85156,48;0,005545455
85172,91;0,005527859
85189,48;0,005516129
85206,05;0,005520528
85228,07;0,005520528
85244,88;0,005519062
85261,23;0,005494135
85277,78;0,00548827
85294,34;0,005476539
85310,91;0,005486804
85327,7;0,005479472
85344,07;0,005458944
85360,6;0,005466276
85382,92;0,005456012
85399,91;0,005434018
85416,14;0,005441349
85432,63;0,00542522
85449,2;0,005414956
85465,77;0,005404692
85482,32;0,005376833
85499,22;0,005372434
85516,28;0,005385631
85535,89;0,005369502
85552,47;0,005372434
85569,02;0,005368035
85585,63;0,005353373
85602,16;0,005356305
85618,88;0,005385631
85635,61;0,005381232
85651,86;0,005378299
85668,43;0,005381232
85688,89;0,005394428
85705,54;0,005398827
85722,02;0,005401759
85738,59;0,005401759
85755,16;0,005398827
85771,87;0,005381232
85788,82;0,005381232
85804,86;0,005365103
85821,42;0,005368035
85843,47;0,005366569
85860,04;0,005398827
85882,79;0,005410557
85899,36;0,005394428
85915,97;0,005398827
85932,48;0,005394428
85949,09;0,005404692
85966,55;0,005420821
85982,27;0,005426686
86003,55;0,005416422
86020,13;0,005403226
86036,69;0,005407625
86053,48;0,005407625
86070,35;0,005403226
86086,39;0,005387097
86103,01;0,005388563
86120,36;0,005385631
86136,09;0,005382698
86157,55;0,005412024
86174,12;0,005412024
86190,68;0,005412024
86207,55;0,005409091
86223,95;0,005404692
86240,38;0,005392962
86256,95;0,005379765
86273,52;0,005372434
86290,09;0,005379765
86311,1;0,005384164
86327,67;0,005385631
86344,23;0,005409091
86360,84;0,005398827
86377,47;0,005394428
86393,95;0,005423754
86410,51;0,005422288
86427,34;0,005426686
86443,95;0,005419355
86466,87;0,005417889
86483,45;0,005409091
86500;0,005412024
86516,98;0,005412024
86533,13;0,005395894
86549,7;0,005391496
86566,27;0,0053739
86583,45;0,005387097
86599,41;0,005387097
86620,53;0,005403226
86637,1;0,005422288
86653,94;0,005407625
86670,23;0,005407625
86686,8;0,005392962
86704,25;0,005392962
86721,14;0,005407625
86737,38;0,005422288
86753,95;0,005422288
86775,45;0,005439883
86792,02;0,005438417
86808,59;0,005451613
86825,35;0,005451613
86841,72;0,00544868
86858,28;0,005456012
86875,13;0,005466276
86891,7;0,005479472
86907,98;0,005479472
86931,43;0,005495601
86948;0,005508798
86964,91;0,005507331
86981,17;0,005508798
86997,98;0,005508798
87014,63;0,005510264
87030,84;0,005542522
87047,41;0,005536657
87063,97;0,005519062
87085,22;0,00552346
87101,79;0,005521994
87118,94;0,005521994
87134,93;0,00555132
87151,76;0,005554252
87168,06;0,005557185
87184,79;0,005557185
87201,19;0,005546921
87217,76;0,005567449
87239,84;0,005570381
87256,41;0,005573314
87273,08;0,005587976
87289,55;0,005582111
87306,12;0,00557478
87322,96;0,00556305
87339,3;0,005560117
87355,82;0,005570381
87372,38;0,005561584
87393,38;0,005552786
87409,95;0,00557478
87427,39;0,00557478
87443,09;0,005570381
87459,77;0,005570381
87476,21;0,005585044
87492,89;0,005585044
87509,34;0,005583578
87525,91;0,005552786
87558,25;0,005549854
87574,83;0,005552786
87591,42;0,005560117
87607,95;0,005555719
87624,56;0,005545455
87641,26;0,005552786
87657,66;0,005532258
87674,27;0,005529325
87690,79;0,005517595
87714,98;0,0055
87731,55;0,005505865
87748,63;0,005505865
87764,68;0,005498534
87781,35;0,005519062
87798,27;0,00552346
87814,39;0,005514663
87830,95;0,00551173
87847,76;0,005491202
87870,05;0,005485337
87886,63;0,005454545
87903,18;0,005445748
87919,75;0,005456012
87936,56;0,005458944
87953,05;0,005458944
87969,45;0,005441349
87986,28;0,005444282
88002,58;0,005450147
88025,23;0,005461877
88041,8;0,005461877
88058,43;0,005473607
88074,98;0,005478006
88091,5;0,005492669
88108,06;0,005491202
88124,74;0,005497068
88141,4;0,005498534
88157,76;0,005480939
88181,29;0,005510264
88198,5;0,005516129
88214,52;0,005516129
88230,98;0,005505865
88247,56;0,005508798
88264,34;0,005521994
88280,7;0,005529325
88297,26;0,005520528
88313,83;0,005521994
88335,03;0,005543988
88352,2;0,005538123
88368,43;0,005538123
88388,37;0,005542522
88404,96;0,005520528
88422,21;0,005505865
88755,55;0,005456012
88779,16;0,005450147
88795,79;0,00542522
88812,31;0,00542522
88829,03;0,005426686
88845,44;0,005416422
88862;0,005423754
88878,57;0,005423754
88895,36;0,005407625
88911,77;0,005407625
88929,15;0,005429619
88949,4;0,005419355
88967,68;0,005414956
88982,66;0,005444282
88999,11;0,005431085
89015,67;0,005439883
89032,39;0,005432551
89048,8;0,005444282
89065,38;0,00544868
89081,96;0,005458944
89105,7;0,005464809
89122,37;0,005489736
89138,84;0,005494135
89155,41;0,00552346
89171,98;0,005532258
89188,55;0,005532258
89205,9;0,005532258
89221,67;0,005532258
89238,24;0,005548387
89259,05;0,005548387
89275,77;0,00555132
89292,53;0,005536657
89308,76;0,005545455
89326,03;0,005560117
89341,9;0,005545455
89358,46;0,005577713
89375,03;0,005589443
89391,59;0,005589443
89414,76;0,005607038
89431,65;0,005607038
89447,89;0,005612903
89464,47;0,005604106
89481,03;0,005604106
89497,6;0,005611437
89514,32;0,005621701
89530,73;0,00561437
89547,8;0,0056261
89571,7;0,005665689
89588,38;0,005651026
89604,83;0,005658358
89621,39;0,00564956
89637,96;0,005680352
89654,52;0,005668622
89671,39;0,005659824
89687,96;0,005673021
89704,27;0,005683285
89726,66;0,005684751
89743,23;0,005699413
89759,8;0,005711144
89776,38;0,00572434
89793,48;0,005719942
89809,5;0,00572434
89827,73;0,005714076
89844,75;0,005715542
89860,86;0,005711144
89882,73;0,005718475
89899,76;0,005711144
89915,87;0,005709677
89932,45;0,005709677
89949,3;0,005725807
89965,57;0,00572434
89982,41;0,005702346
89999,06;0,005705279
90015,33;0,005717009
90038,18;0,005695015
90054,74;0,005697947
90071,63;0,005673021
90087,88;0,005677419
90104,45;0,005692082
90121,02;0,005705279
90137,58;0,005684751
90154,7;0,005702346
90170,72;0,005733138
90192,11;0,005714077
90209,16;0,005731672
90225,62;0,005725807
90242;0,005714077
90258,55;0,005715542
90274,94;0,005703812
90292,03;0,005703812
90308,08;0,005741936
90325,29;0,005743402
90347,93;0,005749267
90365,02;0,005749267
90381,06;0,005791789
90397,64;0,00577566
90414,21;0,005784458
90430,77;0,005788856
90447,57;0,005788856
90463,91;0,005788856
90480,47;0,005788856
90503,85;0,005797654
90520,77;0,005784458
90536,99;0,005769795
90553,57;0,005771261
90570,15;0,005771261
90586,9;0,005777126
90603,34;0,005771261
90620,72;0,005762463
90637,15;0,005739003
90668,94;0,005730205
90685,82;0,005730205
90702,07;0,005730205
90718,64;0,005722874
90735,31;0,005722874
90752,04;0,005717009
90768,34;0,005711144
90784,91;0,005711144
90801,47;0,005714077
90824,07;0,005708211
90840,65;0,005715542
90857,94;0,005714077
90874,05;0,005722874
90890,34;0,005719942
90906,91;0,005719942
90923,48;0,005695015
90940,05;0,005696481
90956,81;0,005703812
90977,26;0,005703812
90993,99;0,005678886
91010,39;0,005678886
91027,41;0,005673021
91043,52;0,005665689
91060,21;0,005661291
91076,66;0,005648094
91093,23;0,005646628
91109,8;0,005645161
91131,91;0,005645161
91148,48;0,005612903
91165,27;0,005612903
91181,8;0,005593842
91198,19;0,005593842
91215,35;0,005587976
91231,31;0,005587976
91248,49;0,005586511
91264,45;0,005565982
91288,11;0,00555132
91304,69;0,005560117
91321,24;0,005549854
91338,01;0,005548387
91354,98;0,005546921
91371,57;0,005533725
91387,52;0,005521994
91404,08;0,00552786
91420,98;0,005505865
91444,46;0,005479472
91461,66;0,005458944
91477,59;0,005463343
91494,21;0,005463343
91513,95;0,005472141
91530,52;0,005478006
91547,1;0,005489736
91563,65;0,005476539
91580,33;0,005476539
91603,77;0,005489736
91620,88;0,005463343
91637,29;0,005458944
91653,49;0,005458944
91670,31;0,005453079
91686,68;0,005442815
91703,18;0,005444282
91720,01;0,005431085
91736,34;0,005447214
91757,26;0,005447214
91773,83;0,005414956
91791,11;0,005404692
91806,96;0,005378299
91823,94;0,005385631
91840,87;0,005397361
91857,12;0,005397361
91874,12;0,005397361
91890,1;0,00541349
91913,02;0,005412024
91930,47;0,005409091
91946,55;0,005401759
91962,82;0,00541349
91979,29;0,005409091
91996,09;0,005404692
92012,42;0,005403226
92028,98;0,005412024
92045,55;0,005412024
92067,13;0,005416422
92083,79;0,005414956
92100,27;0,005419355
92117,24;0,005412024
92133,4;0,005416422
92149,96;0,005416422
92166,72;0,005392962
92183,11;0,005395894
92199,91;0,005401759
92222,52;0,005391496
92239,23;0,005398827
92256,4;0,005391496
92272,23;0,005390029
92288,79;0,005387097
92305,71;0,005375367
92321,92;0,005403226
92338,75;0,005397361
92356,87;0,005372434
92378,27;0,005366569
92394,93;0,005353373
92411,41;0,00535044
92427,97;0,005337243
92444,63;0,005344575
92461,11;0,005363637
92477,67;0,005359238
92494,24;0,005354839
92510,8;0,005354839
92527,38;0,005341643
92549,7;0,005357771
92567,21;0,005357771
92583,3;0,005347508
92599,41;0,005348974
92615,98;0,005347508
92632,55;0,005353373
92649,11;0,00535044
92666,05;0,00535044
92682,24;0,005353373
92705,39;0,005369502
92722,03;0,005370968
92738,62;0,0053739
92755,09;0,005388563
92771,66;0,005392962
92788,23;0,005379765
92804,82;0,005376833
92821,41;0,005376833
92837,93;0,005378299
92861,18;0,0053739
92877,86;0,005370968
92894,32;0,005370968
92911,27;0,005366569
92927,45;0,005354839
92944,02;0,005344575
92960,59;0,00533871
92977,93;0,00533871
93311,27;0,00533871
93327,84;0,005313783
93344,4;0,005318182
93360,98;0,005284457
93377,53;0,005284457
93394,1;0,005316716
93411,03;0,005316716
93427,23;0,005312317
93443,83;0,005325513
93460,86;0,005332845
93476,93;0,00533871
93493,5;0,005332845
93510,06;0,005324047
93526,63;0,005334311
93543,2;0,005328446
93559,8;0,005331378
93576,34;0,005318182
93592,9;0,005324047
93609,47;0,005329912
93626,03;0,005328446
93642,6;0,005328446
93659,16;0,005328446
93675,89;0,005334311
93692,3;0,005359238
93708,89;0,005344575
93725,43;0,005346041
93742,01;0,005334311
93758,89;0,005328446
93775,2;0,005326979
93791,7;0,005326979
93808,27;0,005325513
93825,5;0,005325513
93841,41;0,005303519
93857,96;0,005325513
93874,54;0,005340176
93891,1;0,00533871
93907,95;0,00533871
93924,64;0,005347508
93941,3;0,00535044
93957,37;0,00535044
93974,66;0,005346041
93990,5;0,005337243
94007,21;0,005331378
94023,82;0,005326979
94040,63;0,005325513
94056,77;0,005316716
94073,44;0,005328446
94089,9;0,005328446
94106,47;0,005324047
94123,03;0,005324047
94139,6;0,005315249
94156,17;0,005326979
94172,73;0,005334311
94189,3;0,005343108
94205,87;0,005331378
94222,44;0,005318182
94239;0,005322581
94255,59;0,005322581
94272,2;0,005302053
94288,82;0,005329912
94305,27;0,005337243
94321,9;0,005344575
94338,98;0,005347508
94355,43;0,005346041
94371,53;0,005354839
94388,1;0,00536217
94405,32;0,00536217
94421,42;0,005400294
94437,8;0,005400294
94454,37;0,005407625
94470,95;0,005401759
94487,49;0,005426686
94504,14;0,005444282
94520,65;0,005456012
94537,21;0,005463343
94553,77;0,005463343
94570,33;0,005467742
94586,9;0,005473607
94603,46;0,005458944
94620,03;0,00544868
94636,59;0,005434018
94653,16;0,005434018
94669,73;0,005469208
94686,75;0,005475074
94702,88;0,005475074
94719,43;0,005494135
94736,51;0,005470674
94752,86;0,005470674
94773,58;0,005478006
94785,84;0,005466276
94802,28;0,005470674
94818,84;0,00544868
94835,4;0,005457478
94851,97;0,005458944
94868,53;0,005467742
94885,27;0,005467742
94901,66;0,005486804
94918,23;0,005507331
94935,23;0,005483871
94952,08;0,00548827
94968,07;0,005505865
94984,5;0,005514663
95001,38;0,005520528
95017,63;0,005514663
95034,21;0,005504399
95050,77;0,005497068
95067,8;0,005497068
95083,9;0,00548827
95100,47;0,00551173
95117,11;0,00551173
95133,6;0,005513196
95150,24;0,005508798
95166,76;0,00551173
95183,3;0,005513196
95199,87;0,005507331
95216,52;0,005507331
95233;0,005521994
95249,77;0,005526393
95266,13;0,005542522
95282,7;0,005538123
95299,27;0,00555132
95315,84;0,005545455
95332,41;0,005546921
95349,13;0,005549854
95366,03;0,00555132
95382,1;0,00557478
95398,67;0,00557478
95415,24;0,005570381
95431,8;0,005601173
95448,38;0,005586511
95465,02;0,005580645
95481,8;0,005580645
95498,08;0,00557478
95514,64;0,005564516
95531,52;0,005564516
95548,16;0,005573314
95564,33;0,005577713
95581,38;0,005598241
95597,47;0,005586511
95614,03;0,005576246
95630,67;0,005576246
95647,16;0,00556305
95663,74;0,005548387
95680,3;0,005573314
95696,86;0,00556305
95713,43;0,00556305
95729,99;0,005585044
95746,57;0,005580645
95763,84;0,005590909
95779,7;0,005583578
95796,31;0,005595308
95812,83;0,005601173
95829,4;0,005609971
95845,96;0,005596774
95862,53;0,005596774
95879,13;0,005607038
95896,05;0,005586511
95912,93;0,005595308
95928,86;0,005612903
95945,37;0,005617302
95962,2;0,005611437
95978,66;0,005609971
95995,06;0,005618768
96012,53;0,005633431
96028,22;0,005627566
96044,77;0,005630499
96061,34;0,005631965
96077,9;0,005621701
96095,13;0,005617302
96111,03;0,0056261
96127,6;0,005627566
96144,62;0,005611437
96161,48;0,005627566
96177,3;0,005627566
96193,86;0,005615836
96210,44;0,005615836
96227,4;0,00561437
96243,57;0,00561437
96260,13;0,005611437
96276,7;0,005621701
96293,27;0,005607038
96309,84;0,005596774
96326,4;0,005596774
96342,96;0,005589443
96359,54;0,005589443
96376,1;0,005579179
96393,01;0,005565982
96409,23;0,005535191
96425,8;0,005580645
96442,56;0,005576246
96458,93;0,005577713
96475,7;0,005577713
96492,06;0,005576246
96508,73;0,005576246
96525,73;0,005577713
96541,77;0,005567449
96558,34;0,005554252
96574,9;0,005548387
96591,47;0,005546921
96608,03;0,005560117
96624,81;0,005560117
96641,16;0,005590909
96658,04;0,005598241
96674,3;0,005589443
96690,87;0,005577713
96707,43;0,00556305
96724,02;0,00556305
96740,56;0,005557185
96757,13;0,005570381
96773,7;0,005580645
96790,76;0,005579179
96806,96;0,005582111
96823,67;0,005607038
96839,97;0,005607038
96856,53;0,005602639
96873,38;0,005587976
96889,66;0,00556305
96906,23;0,005555719
96922,87;0,005545455
96939,58;0,005555719
96955,93;0,00555132
96973,35;0,00553959
96989,07;0,005530792
97005,69;0,005510264
97022,41;0,005502933
97038,77;0,005507331
97055,35;0,00552346
97071,9;0,005524927
97088,92;0,005517595
97105,03;0,005507331
97121,59;0,005507331
97138,17;0,005526393
97154,8;0,005517595
97171,3;0,005524927
97187,87;0,005546921
97204,59;0,005546921
97221;0,005533725
97238,31;0,005548387
97254,52;0,005533725
97270,7;0,00552786
97288,02;0,00552786
97304,64;0,005542522
97320,97;0,005541056
97336,97;0,005557185
97353,6;0,005564516
97370,1;0,005565982
97386,66;0,005530792
97403,3;0,00553959
97419,8;0,005526393
97436,36;0,005504399
97452,94;0,005516129
97469,5;0,005517595
97486,06;0,005517595
97502,63;0,005558651
97519,91;0,00556305
97535,77;0,005585044
97552,33;0,005557185
97568,9;0,00555132
97585,75;0,005560117
97602,03;0,005570381
97618,6;0,005570381
97635,16;0,005579179
97651,96;0,005577713
97668,3;0,005585044
97684,87;0,005585044
97701,43;0,005589443
97718;0,005580645
97734,56;0,005576246
97751,13;0,005576246
97768,19;0,005579179
97784,27;0,005579179
97801,11;0,005585044
97821,45;0,005587976
97833,98;0,005593842
97850,53;0,00561437
97867,09;0,005612903
97883,78;0,005612903
97900,23;0,005602639
97916,8;0,005585044
97933,38;0,005564516
97949,95;0,005561584
97966,63;0,005558651
97983,08;0,00557478
97999,64;0,005555719
98016,33;0,005555719
98032,77;0,005571848
98049,34;0,005573314
98065,91;0,005567449
98082,5;0,005564516
98099,05;0,005564516
98115,61;0,005565982
98132,17;0,005580645
98149,06;0,00557478
98165,3;0,00557478
98181,88;0,005571848
98198,5;0,005536657
98215;0,00555132
98232,36;0,00555132
98248,13;0,00555132
98264,7;0,005561584
98281,4;0,005555719
98297,83;0,005558651
98314,4;0,005558651
98331,28;0,005561584
98347,53;0,005558651
98364,09;0,00556305
98380,67;0,005552786
98397,24;0,005552786
98413,97;0,005561584
98430,37;0,005577713
98446,93;0,005546921
98463,5;0,005541056
98480,63;0,005541056
98496,63;0,00552786
98513,2;0,005514663
98529,82;0,005505865
98546,34;0,005498534
98563,07;0,005497068
98579,59;0,005495601
98596,52;0,005516129
98612,6;0,005492669
98629,39;0,005494135
98646,32;0,005494135
98662,3;0,005507331
98679,04;0,005510264
98695,68;0,00552786
98712,31;0,005526393
98728,56;0,005541056
98745,29;0,005535191
98761,7;0,005517595
98778,52;0,00551173
98795,41;0,005536657
98814,3;0,005526393
98828,02;0,005526393
98844,53;0,005526393
98861,1;0,005519062
98877,68;0,005519062
98894,23;0,00552346
98911,11;0,005517595
98927,77;0,005507331
98943,93;0,005505865
98960,49;0,005513196
98977,06;0,00552786
98994,05;0,00552786
99010,2;0,005545455
99026,77;0,005555719
99043,34;0,005555719
99059,9;0,005568915
99076,88;0,005561584
99093,03;0,005541056
99109,97;0,005538123
99126,29;0,005538123
99142,73;0,005520528
99159,34;0,00551173
99175,87;0,00551173
99192,43;0,005492669
99209;0,005483871
99225,56;0,005475074
99242,85;0,005463343
99258,73;0,005460411
99275,27;0,005460411
99291,83;0,005476539
99308,4;0,005480939
99324,97;0,005476539
99341,76;0,005467742
99358,28;0,005458944
99374,8;0,005460411
99391,23;0,005460411
99407,8;0,005469208
99424,36;0,005483871
99440,93;0,005478006
99457,98;0,005475074
99474,46;0,005482405
99490,63;0,005470674
99507,45;0,005453079
99523,77;0,00544868
99540,9;0,005426686
99556,94;0,005423754
99573,46;0,005435484
99590,03;0,005417889
99606,61;0,005403226
99623,17;0,005394428
99639,73;0,005403226
99656,3;0,005394428
99673,34;0,005394428
99689,63;0,005384164
99706;0,005378299
99722,56;0,005368035
99739,13;0,005357771
99755,7;0,005346041
99772,27;0,005353373
99788,84;0,005372434
99805,4;0,005369502
99822,1;0,00536217
99839,21;0,005363637
99855,09;0,005332845
99871,78;0,00533871
99888,23;0,005343108
99905,44;0,005348974
99921,37;0,005341643
99938,05;0,005341643
99954,51;0,005341643
99971,47;0,005340176
99987,63;0,005341643
100004,8;0,005332845
100020,8;0,005322581
100037,3;0,005322581
100053,9;0,005332845
100070,8;0,005357771
100087;0,005376833
100103,6;0,005387097
100120,2;0,00536217
100136,9;0,005375367
100153,3;0,005365103
100169,9;0,005365103
100187;0,005412024
100203,1;0,005412024
100219,6;0,005407625
100236,4;0,005401759
100253,3;0,005379765
100269,3;0,005381232
100285,9;0,005381232
100302,4;0,0053739
100319,6;0,0053739
100335,5;0,005379765
100352,1;0,005395894
100368,7;0,005376833
100385,3;0,005385631
100401,8;0,005369502
100418,5;0,005372434
100434,9;0,005382698
100452,4;0,0053739
100468,7;0,0053739
100484,6;0,0053739
100501,2;0,005394428
100517,8;0,005390029
100534,4;0,005398827
100550,9;0,005434018
100567,5;0,005434018
100584,1;0,005426686
100600,6;0,00541349
100617,6;0,005412024
100633,9;0,005417889
100650,3;0,005417889
100666,9;0,005406159
100683,4;0,005398827
100700;0,005387097
100716,8;0,005397361
100733,2;0,005385631
100749,7;0,005382698
100766,3;0,005382698
100782,9;0,005404692
100799,4;0,005412024
100816;0,005404692
100832,5;0,005395894
100849,1;0,005398827
100866,4;0,005397361
100882,7;0,005410557
100898,8;0,005403226
100915,4;0,005403226
100932;0,005410557
100948,6;0,005401759
100965,2;0,005403226
100981,6;0,005403226
100998,2;0,005384164
101014,8;0,005385631
101031,6;0,005379765
101047,9;0,00536217
101064,5;0,005382698
101081;0,005381232
101097,7;0,005387097
101114,2;0,005390029
101130,8;0,005398827
101147,3;0,00536217
101164,8;0,005365103
101180,8;0,005365103
101197;0,005387097
101213,6;0,005384164
101230,1;0,005384164
101246,7;0,005395894
101263,5;0,005388563
101279,9;0,005391496
101296,4;0,005391496
101313,4;0,00536217
101329,5;0,005356305
101346,2;0,005357771
101362,7;0,005365103
101379,4;0,005369502
101395,8;0,005356305
101412,4;0,005363637
101428,9;0,005366569
101445,8;0,005366569
101462,1;0,005360704
101478,6;0,005348974
101495,2;0,005344575
101511,8;0,005370968
101528,3;0,005370968
101545;0,005370968
101561,5;0,0053739
101578;0,005357771
101594,7;0,005357771
101611,2;0,005354839
101627,7;0,00536217
101644,7;0,005356305
101660,9;0,005354839
101677,4;0,005360704
101694;0,00535044
101710,6;0,00533871
101727,1;0,00533871
101744,1;0,00535044
101760,3;0,005344575
101776,8;0,005341643
101793,6;0,005325513
101810;0,005325513
101826,5;0,005328446
101843,1;0,005328446
101860;0,005329912
101876,2;0,005318182
101893;0,005307918
101909,4;0,005312317
101925,9;0,005312317
101942,5;0,005322581
101959,4;0,005316716
101975,6;0,005332845
101992,2;0,005329912
102008,8;0,005329912
102025,6;0,005335777
102042,2;0,005334311
102059,3;0,005329912
102075;0,005316716
102091,9;0,005285924
102108,2;0,00528739
102124,7;0,005285924
102141,3;0,005282991
102157,9;0,005285924
102174,6;0,005247801
102191;0,005255132
102207,6;0,005255132
102224,1;0,005255132
102240,9;0,005260997
102257,5;0,005266862
102273,8;0,005265396
102290,4;0,005274194
102307,2;0,00528739
102323,5;0,005288857
102340,1;0,005296188
102357;0,005285924
102373,3;0,005291789
102389,8;0,005278592
102406,4;0,005302053
102423;0,005296188
102439,5;0,005290322
102456,1;0,005293255
102472,6;0,005285924
102489,2;0,005285924
102505,8;0,005310851
102522,5;0,005309384
102538,9;0,005290322
102555,5;0,005290322
102572;0,005260997
102588,6;0,005241936
102605,2;0,005236071
102621,9;0,005241936
102638,3;0,005219941
102654,9;0,005230205
102671,4;0,005199414
102688,1;0,005209677
102704,6;0,005214076
102721,1;0,005208211
102737,7;0,005217009
102754,3;0,005231672
102770,8;0,005228739
102787,5;0,005215542
102804;0,005193548
102820,5;0,005190616
102837,1;0,005184751
102853,7;0,005187683
102870,7;0,005187683
102886,9;0,005192082
102903,4;0,005175953
102919,9;0,005181818
102936,5;0,005192082
102953,1;0,005203812
102969,8;0,005206745
102986,2;0,005203812
103002,8;0,005190616
103019,3;0,005184751
103035,9;0,005183285
103052,5;0,005181818
103069;0,005170088
103085,6;0,005170088
103102,2;0,005175953
103118,9;0,005164223
103135,3;0,005164223
103152;0,005205279
103168,4;0,005195015
103185;0,005167156
103201,7;0,005175953
103218,1;0,005178886
103234,9;0,005175953
103251,3;0,005170088
103267,8;0,005181818
103284,6;0,00518915
103301;0,005168622
103317,5;0,005183285
103334,5;0,005184751
103350,7;0,005178886
103367,3;0,005175953
103383,8;0,005178886
103400,4;0,005196481
103417,2;0,005193548
103433,7;0,005187683
103450,1;0,005187683
103466,6;0,005196481
103483,2;0,005193548
103499,8;0,00517742
103516,3;0,00517742
103532,9;0,005171554
103549,6;0,005164223
103566;0,005164223
103582,6;0,005178886
103599,7;0,005195015
103616;0,005181818
103632,3;0,005161291
103648,9;0,005161291
103666;0,005186217
103682,1;0,005180352
103699;0,005195015
103715,1;0,005193548
103731,8;0,005193548
103748,3;0,005237537
103764,9;0,005246334
103781,5;0,005228739
103798;0,005225806
103814,7;0,005225806
103831,5;0,005222874
103847,8;0,005219941
103864,8;0,005206745
103880,8;0,005218475
103897,4;0,005225806
103913,9;0,005227273
103930,5;0,005227273
103947,1;0,005217009
103963,6;0,005227273
103980,2;0,005218475
103996,8;0,005221408
104013,6;0,005231672
104030;0,005244868
104046,5;0,005233138
104063,3;0,005231672
104079,6;0,005243402
104096,2;0,005244868
104112,8;0,005241936
104129,3;0,005241936
104145,9;0,005244868
104162,4;0,005244868
104179,2;0,005253666
104195,6;0,005247801
104212,3;0,005246334
104228,7;0,005221408
104245,5;0,005219941
104261,8;0,005228739
104278,4;0,005221408
104295;0,005244868
104311,5;0,005228739
104328,3;0,005228739
104344,7;0,005230205
104361,2;0,005214076
104377,8;0,005214076
104394,4;0,005243402
104410,9;0,005244868
104427,5;0,005249267
104444,5;0,005258065
104460,7;0,005255132
104477,2;0,005240469
104493,8;0,005239003
104510,3;0,005237537
104526,9;0,005243402
104543,5;0,005241936
104560;0,005259531
104576,6;0,005258065
104593,7;0,00528739
104609,7;0,00528739
104626,3;0,005290322
104642,9;0,005297654
104659,4;0,005306452
104676;0,005334311
104692,6;0,005337243
104709,1;0,005354839
104725,7;0,005354839
104742,7;0,005353373
104758,8;0,00533871
104775,8;0,005341642
104792,1;0,005341642
104808,7;0,00533871
104825,8;0,005325513
104841,7;0,005337243
104858,2;0,005343108
104875,5;0,005363637
104891,4;0,00536217
104907,9;0,005363637
104924,5;0,005370968
104941,1;0,005379765
104957,7;0,005379765
104974,4;0,005385631
104990,8;0,005376833
105007,3;0,005384164
105023,9;0,005382698
105045,6;0,005390029
105057;0,005390029
105074;0,005390029
105090,2;0,005390029
105106,7;0,005400294
105123,3;0,005390029
105139,9;0,005417889
105157,1;0,005414956
105173;0,005426686
105189,6;0,005438416
105206,1;0,005420821
105222,8;0,005428153
105239,8;0,005428153
105255,8;0,005428153
105272,4;0,005419355
105289;0,005419355
105305,6;0,005416422
105322,1;0,005416422
105338,7;0,005416422
105355,3;0,005419355
105371,8;0,005419355
105388,4;0,005394428
105405,3;0,005391496
105421,5;0,005390029
105438,1;0,005390029
105455,1;0,005390029
105471,4;0,005397361
105488,2;0,005391496
105504,3;0,005384164
105521,6;0,005388563
105537,5;0,005392962
105554;0,005381232
105570,6;0,005376833
105587,2;0,005372434
105604,1;0,005369502
105620,3;0,005369502
105636,9;0,005381232
105653,5;0,005414956
105670,3;0,005441349
105686,6;0,005441349
105703,1;0,005428153
105720,1;0,005423754
105736,3;0,005416422
105752,8;0,00541349
105769,4;0,00541349
105786;0,005404692
105802,5;0,005407625
105819,7;0,005398827
105835,7;0,005391496
105852,3;0,005391496
105868,8;0,005412024
105885,8;0,005429619
105901,9;0,005419355
105918,5;0,005422288
105935,1;0,005423754
105951,7;0,005422288
105968,2;0,005417889
105984,9;0,005403226
106001,3;0,005381232
106018,1;0,005391496
106034,5;0,005390029
106051;0,005390029
106067,6;0,005403226
106084,6;0,005404692
106100,7;0,005404692
106117,8;0,005412024
106133,9;0,005410557
106150,4;0,005442815
106167,2;0,005461877
106183,6;0,005461877
106200,2;0,005464809
106216,7;0,005467742
106233,3;0,005472141
106249,8;0,005472141
106266,5;0,005464809
106283,5;0,005463343
106299,8;0,005457478
106316,7;0,005451613
106333;0,005451613
106349,2;0,00544868
106365,8;0,005450147
106382,4;0,005444282
106398,9;0,005420821
106415,5;0,005417889
106432,1;0,005419355
106449,2;0,005419355
106465,5;0,005426686
106481,8;0,005442815
106498,3;0,00543695
106515;0,005439883
106531,5;0,005439883
106548;0,005429619
106565,3;0,005410557
106581,2;0,005407625
106597,8;0,005407625
106615,1;0,005407625
106631,2;0,005401759
106647,4;0,005419355
106664;0,005412024
106680,6;0,005404692
106697,4;0,005370968
106713,7;0,005359238
106730,5;0,005359238
106746,8;0,005359238
106763,4;0,005359238
106780;0,0053739
106797;0,005385631
106813,1;0,005394428
106829,7;0,005379765
106846,2;0,005372434
106863,6;0,005384164
106879,4;0,005363637
106895,9;0,005369502
106912,5;0,005372434
106929,1;0,005346041
106945,6;0,005344575
106962,2;0,005343108
106978,8;0,005376833
106995,3;0,005376833
107011,9;0,005384164
107028,5;0,005416422
107045;0,005395894
107061,6;0,005404692
107078,2;0,005404692
107094,7;0,005388563
107115,1;0,005391496
107128,1;0,005382698
107144,6;0,0053739
107161;0,005363637
107177,8;0,005359238
107194,6;0,005357771
107211,6;0,005366569
107227,3;0,005363637
107244;0,005366569
107260,5;0,005391496
107277;0,005391496
107293,6;0,005384164
107310,1;0,00541349
107326,7;0,005401759
107343,3;0,005412024
107360,2;0,005412024
107376,5;0,005422288
107392,9;0,005414956
107409,5;0,005431085
107426,1;0,005422288
107442,6;0,005422288
107459,2;0,005420821
107476,1;0,005445748
107492,5;0,005444282
107508,9;0,005447214
107525,5;0,005454545
107542;0,005461877
107558,6;0,005463343
107575,2;0,005470674
107591,7;0,005469208
107608,3;0,005469208
107624,9;0,005464809
107642;0,005463343
107658;0,005432551
107674,6;0,005431085
107691,2;0,005431085
107707,7;0,00543695
107724,3;0,005435484
107741,2;0,005431085
107757,4;0,005441349
107774,5;0,005460411
107791;0,005434018
107807,1;0,00544868
107823,7;0,005461877
107840,2;0,005475074
107856,8;0,00544868
107873,4;0,005445748
107889,9;0,005414956
107906,5;0,005420821
107923,1;0,005414956
107940,2;0,005401759
107956,2;0,005422288
107972,8;0,005422288
107989,3;0,005416422
108005,9;0,005416422
108022,5;0,005416422
108039;0,005426686
108055,6;0,005414956
108072,2;0,005391496
108088,7;0,005391496
108105,3;0,005376833
108121,9;0,005356305
108139,1;0,005351906
108155,7;0,005359238
108172,3;0,005359238
108188,8;0,005332845
108205,4;0,00535044
108222,3;0,005341643
108238,6;0,005331378
108255,6;0,005328446
108271,7;0,005325513
108288,2;0,005325513
108305,2;0,005332845
108321,4;0,005341643
108337,9;0,005332845
108354,5;0,005337243
108371,1;0,005335777
108387,6;0,005341643
108404,2;0,005344575
108420,8;0,005344575
108437,3;0,00533871
108453,9;0,005322581
108470,8;0,005322581
108487;0,005319648
108503,8;0,005319648
108520,4;0,005310851
108536,7;0,005302053
108553,4;0,005293255
108569,9;0,005300587
108586,7;0,005302053
108603;0,005304985
108619,8;0,005312317
108636,2;0,005312317
108652,9;0,005309384
108669,3;0,005306452
108686;0,005303519
108702,6;0,005319648
108719,6;0,005332845
108735,5;0,005335777
108752,1;0,005337243
108768,7;0,005337243
108785,3;0,005334311
108802,3;0,005319648
108818,9;0,005324047
108835,5;0,005326979
108851,5;0,005313783
108868,2;0,005341643
108884,6;0,005348974
108901,2;0,005348974
108917,8;0,005351906
108934,3;0,005384164
108950,9;0,005378299
108967,5;0,00535044
108984,4;0,005340176
109000,6;0,00533871
109017,2;0,005316716
109034,1;0,005319648
109050,3;0,005356305
109066,9;0,005353373
109083,4;0,005372434
109100;0,0053739
109116,9;0,005387097
109133,1;0,005387097
109149,7;0,005357771
109166,3;0,00535044
109183,3;0,005341643
109199,4;0,005332845
109216;0,005332845
109232,5;0,005332845
109249,2;0,005357771
109265,8;0,005356305
109282,2;0,00536217
109299,1;0,005357771
109315,4;0,005347508
109332,1;0,00535044
109348,5;0,005337243
109365,1;0,005334311
109381,6;0,005340176
109398,2;0,005324047
109414,8;0,005307918
109431,6;0,005318182
109447,9;0,005318182
109464,7;0,005313783
109481,3;0,005313783
109497,6;0,005318182
109514,2;0,005307918
109530,9;0,005318182
109547,3;0,005316716
109563,9;0,005316716
109580,4;0,005315249
109597;0,005322581
109613,8;0,005322581
109630,2;0,005324047
109647;0,005341642
109663,3;0,005340176
109679,8;0,005340176
109696,4;0,005316716
109713,1;0,005300587
109729,7;0,005302053
109746,3;0,005291789
109762,7;0,005291789
109779,2;0,005290322
109796,2;0,00529912
109812,4;0,005310851
109828,9;0,005300587
109845,7;0,005316716
109862,1;0,005309384
109879;0,005316716
109895,2;0,005316716
109911,9;0,005331378
109928,3;0,005351906
109944,9;0,005351906
109961,5;0,005346041
109978,1;0,005365103
109995,1;0,005372434
110011,2;0,005375367
110028,2;0,005390029
110044,3;0,005407625
110060,9;0,005407625
110077,4;0,005410557
110094;0,005414956
110110,8;0,005429619
110127,1;0,005432551
110143,7;0,005432551
110160,3;0,00542522
110176,8;0,005441349
110193,6;0,005438417
110210;0,005438417
110226,5;0,005442815
110243,3;0,005450147
110259,7;0,005470674
110276,2;0,005460411
110292,8;0,005454545
110309,4;0,005470674
110325,9;0,005475074
110342,5;0,005475074
110359,8;0,005480939
110375,6;0,005494135
110392,3;0,005507331
110409;0,005521994
110425,8;0,005519062
110441,9;0,005519062
110459,7;0,005520528
110475;0,005520528
110491,6;0,00552346
110508,2;0,005520528
110524,7;0,005520528
110541,3;0,005545455
110557,9;0,005545455
110574,6;0,005560117
110591,1;0,005560117
110607,6;0,005565982
110624,1;0,005541056
110640,9;0,005541056
110657,3;0,00553959
110673,8;0,005526393
110690,6;0,005532258
110707;0,00552346
110723,9;0,00552346
110740,1;0,005526393
110757,2;0,005513196
110773,3;0,00552346
110789,8;0,005541056
110806,4;0,005541056
110822,9;0,005558651
110839,5;0,005567449
110856,4;0,005567449
110872,6;0,005542522
110889,2;0,005530792
110905,9;0,005530792
110922,3;0,005505865
110939,3;0,005510264
110955,5;0,0055
110972;0,005502933
110988,6;0,00551173
111005,2;0,00551173
111021,7;0,005519062
111038,3;0,005521994
111055,5;0,005497068
111071,4;0,005502933
111088;0,005497068
111104,6;0,005513196
111121,4;0,005517595
111138,1;0,005516129
111154,3;0,005542522
111170,8;0,005538123
111187,5;0,005538123
111204;0,005546921
111220,5;0,005546921
111237,4;0,00553959
111253,9;0,005543988
111270,4;0,005548387
111287,3;0,00556305
111303,4;0,005545455
111320,1;0,005549854
111336,5;0,005557185
111353,1;0,005561584
111370,3;0,00556305
111386,2;0,005577713
111402,9;0,005590909
111419,3;0,005589443
111435,9;0,00557478
111452,5;0,00557478
111469;0,00557478
111485,8;0,005555719
111502,2;0,005560117
111518,7;0,005552786
111535,3;0,005546921
111551,9;0,005548387
111568,4;0,005552786
111585;0,005543988
111601,6;0,005538123
111618,1;0,005541056
111634,8;0,005535191
111651,3;0,005535191
111667,8;0,005521994
111684,4;0,005555719
111701,6;0,005557185
111717,5;0,005571848
111734,3;0,005571848
111750,7;0,005568915
111767,3;0,005565982
111783,8;0,00557478
111800,4;0,005561584
111816,9;0,005546921
111833,5;0,005546921
111850,1;0,005549854
111866,6;0,005552786
111883,3;0,005554252
111899,8;0,005552786
111916,3;0,005541056
111933,1;0,005538123
111949,5;0,005552786
111966;0,005541056
111982,6;0,005541056
111999,5;0,005501466
112015,7;0,005507331
112032,3;0,005494135
112048,9;0,005478006
112065,5;0,005466276
112082,3;0,005460411
112098,6;0,005450147
112115,1;0,005441349
112131,7;0,005438417
112148,7;0,005428153
112165,3;0,005435484
112181,5;0,005419355
112198;0,005432551
112215;0,005435484
112231,3;0,005428153
112248,1;0,005434018
112264,2;0,005434018
112281,1;0,005419355
112297,7;0,005419355
112314,2;0,005395894
112330,5;0,005395894
112347,1;0,005397361
112363,7;0,005419355
112380,2;0,005416422
112396,8;0,005401759
112413,5;0,005388563
112429,9;0,005379765
112446,5;0,005400294
112463;0,005403226
112479,6;0,005403226
112496,3;0,005403226
112512,7;0,005407625
112529,9;0,005407625
112545,9;0,005406159
112562,6;0,005370968
112579;0,005382698
112595,6;0,005384164
112612,1;0,005384164
112628,9;0,005390029
112645,3;0,005395894
112661,8;0,005395894
112678,4;0,005409091
112695;0,005398827
112711,5;0,005422288
112728,1;0,005434018
112744,7;0,005429619
112761,2;0,005429619
112777,8;0,005401759
112794,4;0,005382698
112810,9;0,005365103
112827,5;0,005365103
112844,1;0,005384164
112860,6;0,005379765
112877,2;0,005370968
112894,3;0,005385631
112910,3;0,005385631
112927;0,005378299
112943,5;0,005369502
112960;0,005384164
112976,6;0,005390029
112993,2;0,005390029
113009,7;0,005406159
113026,5;0,005395894
113043,1;0,005390029
113059,4;0,005400294
113076;0,005379765
113092,7;0,005385631
113109,1;0,005370968
113125,7;0,005354839
113142,3;0,005354839
113158,8;0,005366569
113175,4;0,005372434
113192;0,005388563
113208,5;0,005368035
113225,1;0,00536217
113241,7;0,00536217
113258,2;0,005370968
113274,8;0,005326979
113295,9;0,00533871
113308;0,005329912
113324,6;0,005329912
113341,3;0,005356305
113357,6;0,005366569
113374,8;0,005341643
113390,8;0,005343108
113407,6;0,005341643
113424,4;0,005368035
113440,5;0,00536217
113457,3;0,00536217
113473,6;0,005376833
113490,2;0,005387097
113506,7;0,005391496
113523,5;0,005407625
113539,9;0,005410557
113556,4;0,005410557
113573;0,005400294
113589,6;0,005401759
113606,3;0,005414956
113622,7;0,005407625
113639,3;0,005398827
113655,9;0,005390029
113673;0,005416422
113689,3;0,005391496
113705,6;0,005384164
113722,1;0,005390029
113738,7;0,005388563
113755,3;0,005391496
113771,8;0,005392962
113788,4;0,005392962
113805,4;0,005388563
113821,6;0,005395894
113838,1;0,005395894
113854,9;0,005376833
113871,2;0,005375367
113887,8;0,005382698
113904,5;0,005372434
113920,9;0,005369502
113937,5;0,005365103
113954,5;0,005360704
113970,6;0,0053739
113987,2;0,005375367
114003,9;0,005384164
114020,8;0,005381232
114036,9;0,005387097
114053,8;0,005406159
114070;0,005400294
114086,8;0,005409091
114103,3;0,005409091
114119,7;0,005395894
114136,7;0,005403226
114152,8;0,005412024
114169,7;0,005417889
114186,2;0,005417889
114203,2;0,005407625
114219,1;0,005379765
114235,7;0,005382698
114252,2;0,005378299
114268,8;0,005391496
114285,4;0,005394428
114301,9;0,005404692
114318,5;0,005390029
114335,1;0,005385631
114352,3;0,00536217
114368,2;0,005370968
114384,8;0,005360704
114401,3;0,005360704
114417,9;0,005375367
114435,2;0,005375367
114451;0,005376833
114467,9;0,005344575
114484,2;0,005340176
114500,7;0,005343108
114517,3;0,0053739
114533,9;0,005391496
114550,4;0,005394428
114567;0,005388563
114583,6;0,005392962
114600,4;0,005409091
114616,7;0,005432551
114633,3;0,005420821
114649,8;0,005428153
114666,5;0,005428153
114683;0,005428153
114699,5;0,005429619
114716,1;0,005407625
114732,7;0,005387097
114749,2;0,005398827
114766;0,005394428
114782,4;0,005410557
114798,9;0,005416422
114815,9;0,005419355
114832,3;0,005419355
114849,3;0,005422288
114865,5;0,005409091
114881,8;0,005410557
114898,5;0,005407625
114915,2;0,005407625
114931,5;0,005416422
114948,1;0,005409091
114964,6;0,005409091
114981,3;0,005419355
114997,7;0,005406159
115014,3;0,005406159
115030,9;0,005406159
115047,4;0,005406159
115064;0,005397361
115080,6;0,005397361
115097,1;0,005365103
115113,7;0,005381232
115130,3;0,005354839
115146,8;0,005365103
115164,2;0,005357771
115180;0,005344575
115196,5;0,005341643
115213,2;0,005334311
115229,7;0,005334311
115246,2;0,005328446
115262,8;0,005319648
115279,5;0,005316716
115296,2;0,005332845
115312,5;0,005332845
115335,6;0,005313783
115345,6;0,005326979
115362,4;0,005331378
115379;0,00533871
115395,3;0,005340176
115411,9;0,005328446
115428,5;0,005303519
115445,1;0,005297654
115462,2;0,005297654
115478,3;0,005303519
115494,7;0,005288857
115511,3;0,005288857
115528,1;0,005293255
115544,9;0,00528739
115561;0,005294722
115577,6;0,005290322
115594,8;0,005290322
115610,7;0,005262463
115627,3;0,005253666
115644,1;0,005266862
115660,4;0,005260997
115677,3;0,005260997
115693,5;0,005244868
115710,1;0,005234604
115726,9;0,005243402
115743,6;0,005214076
115760;0,00521261
115776,5;0,005209677
115792,9;0,005195015
115809,5;0,005192082
115826,1;0,005192082
115842,7;0,005206745
115859,2;0,005202346
115875,9;0,005178886
115892,3;0,005175953
115909,4;0,005175953
115925,5;0,005175953
115942;0,005170088
115958,6;0,00514956
115975,3;0,00514956
115991,7;0,005155426
116008,3;0,005161291
116024,9;0,005153959
116041,4;0,005153959
116058;0,005180352
116074,8;0,005168622
116091,3;0,005168622
116107,7;0,005197947
116124,3;0,005215542
116141,7;0,005209677
116157,4;0,005219941
116174;0,005218475
116190,5;0,005219941
116207,1;0,005221408
116223,7;0,005225806
116240,2;0,005225806
116257;0,005197947
116273,4;0,005221408
116289,9;0,005236071
116306,5;0,005246334
116323,6;0,005255132
116339,6;0,005255132
116356,2;0,00526393
116374;0,005303519
116389,6;0,00529912
116406;0,005284457
116422,5;0,005285924
116439;0,005315249
116455,7;0,005315249
116472,2;0,005302053
116488,7;0,005302053
116505,3;0,005310851
116521,9;0,005297654
116539,3;0,005274194
116555;0,00526393
116571,9;0,005256598
116588,1;0,005265396
116604,8;0,005243402
116621,3;0,005225806
116637,8;0,005230205
116655,1;0,005236071
116671;0,005219941
116687,5;0,005236071
116704,6;0,005236071
116720,7;0,005234604
116737,6;0,005243402
116753,8;0,005239003
116770,4;0,005243402
116787;0,005258065
116803,5;0,005268328
116820,7;0,005288857
116836,6;0,005281525
116853,4;0,005307918
116870;0,005321114
116886,3;0,005315249
116903,1;0,005313783
116919,6;0,005321114
116936;0,005321114
116952,6;0,005321114
116969,2;0,005321114
116985,7;0,005321114
117002,3;0,005313783
117018,9;0,005300587
117035,4;0,005348974
117052,3;0,005372434
117068,7;0,005394428
117085,2;0,005387097
117101,7;0,005395894
117118,3;0,005491202
117134,8;0,005497068
117151,4;0,005519062
117168,2;0,00553959
117184,8;0,00553959
117201,1;0,005570381
117217,7;0,005570381
117234,2;0,005643695
117250,9;0,005662757
117267,4;0,005804985
117267,4;0,005809384
117287,4;0,005807918
117304;0,005824047
117320,8;0,005843109
117337,3;0,005853373
117354,1;0,005853373
117370,6;0,005848974
117387,1;0,00583871
117403,4;0,005840176
117419,9;0,00583871
117436,5;0,005843109
117453;0,005853373
117470,1;0,005834311
117486,2;0,005835777
117502,7;0,005843109
117519,3;0,005837244
117535,9;0,005844575
117552,6;0,005832845
117569;0,005818182
117585,6;0,005802053
117602,1;0,005800587
117618,7;0,00578739
117635,3;0,005781525
117651,8;0,005749267
117668,6;0,005753666
117685,2;0,005731672
117702,3;0,005739003
117718,7;0,005728739
117734,7;0,005730205
117751,3;0,005719942
117768,2;0,005719942
117784,4;0,005718475
117800,9;0,005725807
117818,3;0,005756598
117834,1;0,005725807
117850,6;0,005709677
117867,2;0,005678886
117883,8;0,005664223
117900,7;0,005667156
117917,9;0,005668622
117933,7;0,005683285
117950;0,005683285
117966,6;0,005662757
117983,2;0,005664223
117999,9;0,005670088
118016,3;0,005687683
118032,9;0,005695015
118049,4;0,005686217
118066;0,005686217
118082,6;0,005683285
118099,1;0,005697947
118115,7;0,005681818
118132,3;0,005681818
118153,4;0,005687683
118165,9;0,00568915
118182,8;0,005693548
118199;0,005692082
118215,1;0,005692082
118231,7;0,005662757
118248,2;0,005668622
118264,8;0,005664223
118281,4;0,005642229
118297,9;0,005630499
118314,5;0,005634897
118331,1;0,005593842
118347,8;0,005590909
118364,2;0,005586511
118380,8;0,005580645
118397,3;0,005598241
118413,9;0,005598241
118430,5;0,005577713
118447;0,005577713
118463,6;0,00557478
118480,2;0,005564516
118497;0,005567449
118513,3;0,005567449
118530;0,005573314
118547,4;0,005545455
118563;0,005505865
118579,6;0,005524927
118596,1;0,005521994
118612,7;0,005513196
118629,3;0,005485337
118645,9;0,005485337
118662,4;0,00544868
118679;0,005438417
118695,5;0,00544868
118712,1;0,005429619
118728,7;0,005395894
118745,3;0,005390029
118761,8;0,005363637
118778,5;0,005360704
118795;0,005375367
118811,5;0,005376833
118828,1;0,005381232
118844,6;0,005381232
118861,3;0,005357771
118877,8;0,005356305
118894,3;0,005360704
118910,9;0,005343108
118927,5;0,005335777
118944,1;0,005356305
118960,6;0,005337243
118977,2;0,00535044
118994,1;0,005335777
119010,5;0,005328446
119026,9;0,005312317
119043,5;0,00529912
119060;0,005296188
119076,6;0,005296188
119093,1;0,005296188
119109,9;0,005296188
119126,3;0,005310851
119143,2;0,005293255
119165,9;0,005332845
119176,1;0,005341643
119192,5;0,005337243
119209,7;0,005334311
119225,7;0,005334311
119242,2;0,005334311
119258,8;0,005304985
119275,4;0,005322581
119292,4;0,005328446
119308,5;0,005325513
119325,1;0,005324047
119341,8;0,005306452
119358,2;0,005306452
119374,8;0,005312317
119391,8;0,005315249
119407,9;0,005328446
119424,5;0,005322581
119441,3;0,005335777
119457,6;0,005331378
119474,2;0,005356305
119491,2;0,005365103
119507,8;0,005365103
119523,9;0,005360704
119540,4;0,005347508
119557;0,005359238
119573,6;0,005366569
119590,1;0,005372434
119606,9;0,005387097
119623,8;0,005372434
119640,2;0,005372434
119656,4;0,005353373
119673;0,005356305
119689,5;0,005344575
119706,1;0,005344575
119722,7;0,005346041
119739,2;0,005341643
119755,8;0,005346041
119772,7;0,005351906
119788,9;0,005332845
119805,6;0,005332845
119822,2;0,005328446
119838,9;0,005325513
119855,2;0,005315249
119872,2;0,005312317
119888,5;0,005316716
119904,9;0,005309384
119921,8;0,005302053
119938;0,005309384
119954,8;0,005312317
119971,2;0,005332845
119987,8;0,005332845
120004,5;0,005322581
120020,9;0,00529912
120037,4;0,005290322
120054;0,005290322
120070,6;0,005281525
120087,7;0,005271261
120104,5;0,005285924
120120,5;0,005285924
120136,8;0,005294722
120153,4;0,005296188
120174,3;0,005309384
120186,5;0,005300587
120203,1;0,005302053
120219,8;0,005304985
120236,6;0,005346041
120253;0,005343108
120269,4;0,005360704
120285,9;0,005363637
120302,5;0,005378299
120319,8;0,005378299
120335,6;0,005378299
120352,7;0,0053739
120368,8;0,005369502
120385,3;0,005351906
120401,9;0,005369502
120418,5;0,005331378
120435;0,005332845
120451,8;0,005331378
120468,3;0,00536217
120484,7;0,005372434
120501,8;0,00536217
120518,2;0,005360704
120534,4;0,00535044
120551;0,005384164
120567,6;0,005404692
120584,6;0,005381232
120600,7;0,005394428
120617,3;0,005397361
120633,8;0,005394428
120650,4;0,005357771
120667;0,005357771
120683,5;0,005372434
120700,1;0,005347508
120717,2;0,005375367
120733,5;0,005365103
120749,8;0,005365103
120766,4;0,005344575
120783;0,00535044
120799,5;0,005334311
120816,2;0,005334311
120832,6;0,005353373
120849,2;0,005354839
120865,8;0,005366569
120882,3;0,005354839
120899;0,005369502
120915,8;0,005359238
120932,1;0,005357771
120948,6;0,005357771
120965,6;0,005346041
120982,4;0,00533871
120998,3;0,00533871
121014,9;0,005335777
121031,9;0,005340176
121048;0,005331378
121064,7;0,005322581
121081,1;0,005348974
121098,2;0,005347508
121114,4;0,005353373
121130,8;0,00535044
121147,4;0,005348974
121164;0,005313783
121180,9;0,005325513
121201,7;0,005332845
121213,7;0,005334311
121230,2;0,005334311
121247,1;0,005346041
121263,4;0,005360704
121279,9;0,0053739
121296,5;0,005376833
121313,1;0,005378299
121329,6;0,005381232
121346,2;0,005375367
121362,8;0,005375367
121379,3;0,005369502
121395,9;0,0053739
121412,5;0,005375367
121429;0,005370968
121445,7;0,005366569
121462,3;0,005365103
121478,7;0,0053739
121495,3;0,0053739
121512;0,005391496
121528,4;0,005390029
121545,1;0,005391496
121561,6;0,005391496
121578,1;0,005381232
121594,7;0,005385631
121611,3;0,005385631
121627,9;0,005376833
121644,4;0,005376833
121661;0,005388563
121677,5;0,005401759
121694,1;0,005434018
121710,7;0,00543695
121727,2;0,00543695
121743,9;0,005447214
121760,7;0,005463343
121776,9;0,005451613
121793,5;0,005472141
121810,1;0,005470674
121826,6;0,005492669
121843,2;0,005498534
121859,8;0,005517595
121876,4;0,005524927
121893,1;0,005520528
121909,5;0,00552346
121926,2;0,005513196
121942,6;0,005524927
121959,2;0,005524927
121975,7;0,005524927
121992,3;0,005508798
122009,1;0,005543988
122025,4;0,005548387
122042;0,005558651
122058,6;0,005573314
122075,6;0,005573314
122091,8;0,005577713
122108,3;0,005576246
122124,8;0,005604106
122142;0,005617302
122158;0,005620235
122175;0,005620235
122191,1;0,005607038
122207,7;0,005607038
122224,8;0,005607038
122240,8;0,00561437
122257,5;0,005596774
122274,1;0,005596774
122290,7;0,005611437
122307,1;0,005589443
122323,8;0,005595308
122340,2;0,005593842
122356,8;0,005593842
122373,7;0,005595308
122390,1;0,005645161
122406,5;0,005658358
122423;0,005655425
122439,7;0,005651026
122456,2;0,005667156
122472,7;0,005652493
122489,3;0,005651026
122505,9;0,005670088
122522,5;0,005671554
122539;0,005664223
122555,6;0,005659824
122572,3;0,005662757
122588,7;0,005658358
122605,3;0,005652493
122621,8;0,005640762
122639;0,0056261
122655,7;0,005642229
122671,5;0,005627566
122688,1;0,005627566
122704,9;0,005615836
122721,2;0,005605572
122737,8;0,0056261
122754,4;0,005630499
122770,9;0,005629032
122787,5;0,005629032
122804,1;0,005640762
122820,6;0,005631965
122837,7;0,005631965
122853,8;0,005590909
122870,4;0,005580645
122886,9;0,005585044
122903,5;0,005587976
122920,2;0,00555132
122936,6;0,005530792
122953,2;0,005513196
122970;0,005517595
122986,3;0,005527859
123002,9;0,005516129
123019,5;0,005516129
123036;0,005516129
123052,6;0,005498534
123069,1;0,005470674
123086,2;0,005480939
123102,3;0,005476539
123118,8;0,005485337
123135,4;0,005469208
123152;0,005486804
123168,8;0,005480939
123185,5;0,005482405
123202;0,005482405
123218,2;0,005475074
123234,8;0,005464809
123251,4;0,005460411
123267,9;0,005458944
123284,5;0,005464809
123301,1;0,005451613
123317,6;0,005456012
123334,4;0,005457478
123350,8;0,005457478
123367,4;0,005454545
123383,9;0,005447214
123400,5;0,005444282
123417,1;0,005464809
123433,6;0,005470674
123450,2;0,005466276
123466,7;0,005454545
123483,6;0,005457478
123499,9;0,005450147
123516,4;0,005445748
123533;0,005445748
123549,6;0,005456012
123566,1;0,005457478
123582,8;0,005460411
123600;0,00544868
123615,8;0,005457478
123632,6;0,005466276
123649;0,005485337
123665,5;0,005485337
123682,1;0,0055
123698,7;0,0055
123715,3;0,005505865
123731,8;0,005497068
123748,4;0,005497068
123764,9;0,005485337
123781,9;0,005486804
123798,1;0,005478006
123815;0,005475074
123831,2;0,005447214
123847,8;0,005450147
123864,5;0,005444282
123880,9;0,005434018
123897,5;0,005472141
123914,2;0,005460411
123930,6;0,005450147
123947,2;0,005450147
123963,7;0,005453079
123980,8;0,005450147
123996,9;0,005434018
124013,4;0,005419355
124030;0,00541349
124046,9;0,005407625
124063,1;0,005406159
124079,8;0,005416422
124096,3;0,005414956
124113;0,005403226
124129,4;0,005376833
124146;0,005372434
124162,5;0,005360704
124179,1;0,005351906
124195,7;0,005356305
124213,1;0,005363637
124228,8;0,005385631
124250,5;0,005375367
124262,3;0,005378299
124278,5;0,005390029
124295,1;0,005388563
124312,2;0,005390029
124328,2;0,005381232
124344,8;0,005363637
124362,2;0,005348974
124377,9;0,005348974
124394,5;0,005325513
124411,1;0,005325513
124427,9;0,005325513
124444,2;0,005325513
124461,3;0,005296188
124477,3;0,005288857
124493,9;0,005288857
124510,8;0,005296188
124527;0,005272727
124543,6;0,005262463
124560,1;0,005260997
124576,7;0,00527566
124593,5;0,005258065
124609,8;0,005265396
124626,5;0,005265396
124643;0,005268328
124659,5;0,005277126
124676,1;0,005277126
124692,7;0,005262463
124709,2;0,005262463
124725,8;0,005253666
124742,6;0,005247801
124758,9;0,005253666
124775,9;0,005253666
124792,1;0,005265396
124808,6;0,005265396
124825,2;0,005262463
124841,8;0,005262463
124858,3;0,005247801
124874,9;0,0052522
124891,5;0,00527566
124908;0,00528739
124924,6;0,005291789
124941,2;0,005310851
124958,3;0,005312317
124975;0,005313783
124990,9;0,005312317
125008,2;0,005313783
125024;0,005341642
125040,8;0,005344575
125057,1;0,005357771
125073,8;0,005359238
125090,3;0,0053739
125106,8;0,005385631
125123,4;0,005378299
125140,5;0,005378299
125156,6;0,005379765
125173,1;0,005379765
125189,7;0,005381232
125206,2;0,0053739
125222,8;0,005370968
125239,6;0,005390029
125256,2;0,00541349
125273;0,005414956
125289,1;0,005431085
125305,6;0,005422288
125322,5;0,00541349
125338,8;0,005407625
125355,7;0,005412024
125371,9;0,005414956
125389;0,005414956
125405;0,005423754
125421,6;0,00541349
125438,8;0,005414956
125454,8;0,005414956
125471,3;0,005403226
125487,9;0,005417889
125504,4;0,005435484
125521;0,005447214
125537,6;0,005470674
125554,1;0,005473607
125570,7;0,005469208
125587,3;0,005467742
125603,9;0,005444282
125620,9;0,005444282
125637;0,005434018
125653,9;0,005432551
125670,5;0,005416422
125686,7;0,005417889
125703,2;0,005398827
125720;0,005387097
125736,4;0,005397361
125753;0,005398827
125769,5;0,005394428
125786,1;0,005388563
125802,9;0,005391496
125819,2;0,005391496
125836,2;0,005391496
125852,3;0,005382698
125869,1;0,005370968
125885,5;0,005375367
125902;0,005366569
125918,7;0,005360704
125935,2;0,005363637
125951,7;0,005363637
125968,3;0,005363637
125984,9;0,005381232
126002,3;0,005372434
126018;0,005372434
126034,6;0,005376833
126051,3;0,005356305
126067,7;0,005368035
126084,3;0,00536217
126100,8;0,005378299
126117,4;0,005379765
126134;0,005360704
126150,5;0,005340176
126167,1;0,005346041
126183,9;0,005331378
126200,3;0,005312317
126216,8;0,005315249
126233,4;0,005315249
126249,9;0,005290322
126266,7;0,005291789
126283,3;0,005294722
126299,9;0,005293255
126316,5;0,005285924
126333;0,005300587
126349,5;0,005294722
126366,2;0,00529912
126382,8;0,00529912
126399,7;0,005277126
126415,8;0,005266862
126432,4;0,005274194
126448,9;0,005277126
126465,5;0,005260997
126482,1;0,005258065
126498,6;0,005277126
126516;0,005277126
126532,3;0,005277126
126548,3;0,005266862
126564,9;0,005274194
126582,2;0,005271261
126598;0,005272727
126614,7;0,005271261
126631,6;0,005271261
126648;0,005258065
126664,3;0,005250733
126681,6;0,005247801
126697,9;0,0052522
126714;0,005255132
126730,8;0,005256598
126747,1;0,005258065
126763,8;0,005258065
126780,3;0,00526393
126796,9;0,005231672
126813,4;0,005253666
126830;0,005244868
126846,5;0,005244868
126863,1;0,005247801
126879,7;0,005247801
126896,3;0,0052522
126912,9;0,005244868
126929,6;0,005244868
126945,9;0,005230205
126962,8;0,005219941
126979,1;0,005225806
126995,6;0,005225806
127012,2;0,005228739
127028,8;0,005228739
127045,4;0,005240469
127061,9;0,005221408
127078,5;0,005225806
127095;0,00521261
127112;0,005205279
127128,2;0,005208211
127144,8;0,005209677
127161,7;0,005222874
127177,9;0,005222874
127194,5;0,005211144
127211;0,005218475
127227,6;0,00522434
127244,1;0,005219941
127260,7;0,00521261
127277,3;0,005180352
127301,7;0,005187683
127310,4;0,00517742
127327;0,005184751
127343,5;0,005190616
127360,1;0,005183285
127376,7;0,005183285
127393,3;0,005184751
127409,8;0,005184751
127426,5;0,00520088
127443,3;0,005208211
127459,9;0,005192082
127476,2;0,005183285
127492,7;0,005173021
127509,9;0,005173021
127525,9;0,005167156
127542,4;0,005130499
127558,9;0,005133431
127575,5;0,005156891
127592;0,005151026
127609,1;0,005167156
127625,2;0,005165689
127641,7;0,005170088
127658,3;0,005170088
127674,9;0,005175953
127691,8;0,005164223
127708;0,005162757
127724,6;0,005162757
127741,1;0,005165689
127757,7;0,005181818
127774,3;0,005168622
127790,8;0,005170088
127807,9;0,005170088
127824;0,005158358
127840,5;0,005164223
127857,1;0,005173021
127873,7;0,005180352
127890,4;0,00517742
127906,9;0,005183285
127923,8;0,005184751
127939,9;0,005184751
127956,5;0,005180352
127973,7;0,005153959
127990,5;0,005174487
128006,2;0,005174487
128023,3;0,005171554
128039,6;0,005181818
128055,9;0,005181818
128072,7;0,005164223
128089,3;0,005148094
128105,7;0,005158358
128122,2;0,005158358
128138,7;0,005168622
128155,3;0,005180352
128172,4;0,00518915
128188,7;0,005187683
128205;0,005192082
128221,9;0,005180352
128238,1;0,005186217
128254,7;0,005187683
128271,3;0,005178886
128287,8;0,00517742
128306,8;0,005186217
128321;0,005186217
128337,8;0,005165689
128354,1;0,005162757
128370,7;0,005161291
128387,5;0,005158358
128404,3;0,005167156
128420,8;0,00517742
128436,9;0,005174487
128453,7;0,005170088
128470,1;0,005184751
128486,9;0,005193548
128503,2;0,005180352
128520,1;0,005171554
128536,6;0,005195015
128552,9;0,005192082
128569,5;0,005184751
128586;0,005203812
128602,6;0,005203812
128619,2;0,005222874
128635,7;0,005228739
128652,9;0,005217009
128668,9;0,005217009
128685,5;0,005215542
128702;0,005217009
128718,6;0,005247801
128735,1;0,005247801
128751,7;0,005233138
128768,3;0,005249267
128784,8;0,005240469
128801,4;0,005228739
128818;0,005227273
128834,7;0,005231672
128851,9;0,005230205
128867,7;0,005231672
128884,6;0,00522434
128900,8;0,00522434
128917,4;0,00522434
128933,9;0,005234604
128950,7;0,005234604
128967,1;0,005214076
128983,6;0,005222874
129000,2;0,00522434
129016,8;0,005208211
129033,3;0,005208211
129050,1;0,005215542
129066,7;0,005230205
129083;0,005203812
129099,9;0,005215542
129116,2;0,005225806
129133;0,005236071
129149,3;0,005228739
129166;0,005209677
129182,4;0,005214076
129199;0,005228739
129215,6;0,005222874
129232,1;0,005222874
129248,7;0,00521261
129265,3;0,005196481
129282,1;0,005206745
129298,7;0,005206745
129315,4;0,005197947
129332;0,005202346
129348,1;0,005202346
129364,9;0,005205279
129381,2;0,005214076
129397,8;0,005209677
129414,4;0,005202346
129430,9;0,005199414
129447,5;0,005186217
129464,1;0,005202346
129480,6;0,005202346
129497,8;0,00520088
129513,8;0,005219941
129530,3;0,005219941
129547;0,005233138
129563,5;0,005231672
129580;0,005209677
129596,9;0,005217009
129613,2;0,005234604
129630,4;0,005228739
129646,3;0,005228739
129662,9;0,005236071
129679,5;0,005225806
129696;0,005208211
129712,6;0,005233138
129729,4;0,005230205
129745,7;0,005227273
129762,3;0,005214076
129779;0,005237537
129795,4;0,005249267
129812;0,005266862
129828,9;0,00528739
129845,1;0,005278592
129862,4;0,00527566
129878,3;0,00527566
129894,8;0,005262463
129911,5;0,005265396
129928,2;0,00526393
129944,5;0,00526393
129961,5;0,00526393
129977,6;0,005268328
129994,3;0,005268328
130010,8;0,005274194
130027,3;0,005271261
130044,4;0,005274194
130060,5;0,005281525
130077,2;0,005297654
130094;0,005282991
130110,7;0,005282991
130126,7;0,005302053
130143,3;0,005300587
130159,9;0,005300587
130176,5;0,005282991
130193;0,005282991
130209,6;0,005296188
130226,1;0,005291789
130242,7;0,005304985
130259,3;0,005304985
130276,2;0,005290322
130292,4;0,005293255
130309,7;0,005281525
130325,9;0,005290322
130347,7;0,005296188
130359,1;0,00529912
130375,7;0,005321114
130391,9;0,005312317
130408,4;0,005313783
130424,9;0,005328446
130441,5;0,005328446
130458,1;0,005340176
130474,8;0,005328446
130491,2;0,005312317
130508;0,005325513
130524,3;0,005325513
130540,9;0,005306452
130557,5;0,005307918
130574,2;0,005307918
130591;0,005297654
130607,2;0,005303519
130623,7;0,005306452
130640,5;0,005310851
130656,9;0,005302053
130674,3;0,005303519
130690;0,005312317
130706,6;0,005315249
130723,1;0,005312317
130739,7;0,005315249
130756,4;0,005316716
130772,8;0,005328446
130789,4;0,005326979
130806;0,00533871
130823,2;0,00533871
130839,1;0,005326979
130855,7;0,005304985
130872,2;0,005304985
130888,8;0,005304985
130905,4;0,005312317
130921,9;0,005310851
130938,6;0,005312317
130955,6;0,005309384
130971,7;0,005324047
130988,3;0,005319648
131005,4;0,005316716
131021,8;0,005324047
131037,9;0,00533871
131054,5;0,005312317
131071,2;0,005304985
131087,6;0,005321114
131104,2;0,005300587
131120,8;0,005288857
131137,3;0,005277126
131153,9;0,005296188
131170,4;0,005291789
131187;0,005290322
131203,6;0,005288857
131220,1;0,005293255
131236,8;0,005293255
131253,3;0,005296188
131270;0,005310851
131286,4;0,005313783
131303,4;0,005329912
131319,5;0,005322581
131336,1;0,005318182
131352,7;0,005318182
131371,7;0,005324047
131385,8;0,005346041
131402,4;0,005353373
131418,9;0,005348974
131435,5;0,005348974
131452,5;0,005354839
131468,6;0,005351906
131485,2;0,005357771
131501,8;0,005354839
131518,3;0,005347508
131534,9;0,00533871
131551,5;0,00533871
131568,3;0,005315249
131584,6;0,005360704
131601,4;0,00533871
131617,9;0,005315249
131634,3;0,005321114
131651,4;0,005328446
131667,4;0,005334311
131684;0,005335777
131700,6;0,005324047
131717,1;0,00533871
131733,7;0,005346041
131750,3;0,005348974
131767,3;0,005351906
131783,4;0,005348974
131800;0,005343108
131816,9;0,005326979
131833,1;0,005326979
131849,7;0,005328446
131866,7;0,005329912
131882,9;0,005329912
131899,5;0,005332845
131916,2;0,005309384
131932,5;0,005307918
131949,3;0,005319648
131965,6;0,005335777
131982,2;0,005335777
131998,8;0,005335777
132015,3;0,005329912
132032,2;0,005328446
132048,5;0,005312317
132065,4;0,005321114
132082,3;0,005304985
132098,4;0,005310851
132115;0,005303519
132131,3;0,005307918
132147,9;0,005303519
132164,4;0,005300587
132181,1;0,005300587
132197,9;0,00529912
132214,2;0,005315249
132231;0,005318182
132247,3;0,005307918
132264,1;0,005300587
132280,4;0,005321114
132297,2;0,005310851
132314,6;0,005310851
132330,1;0,005313783
132346,7;0,005332845
132363,5;0,005331378
132379,8;0,005331378
132396,4;0,005324047
132413;0,005302053
132429,5;0,005291789
132446,3;0,005282991
132462,6;0,005282991
132479,3;0,005296188
132495,8;0,005296188
132512,6;0,005288857
132529,1;0,005306452
132545,5;0,005288857
132562;0,005300587
132579;0,005297654
132595,5;0,005296188
132611,7;0,005300587
132628,3;0,005291789
132644,9;0,005290322
132661,4;0,005303519
132678;0,005281525
132694,6;0,005277126
132711,3;0,005282991
132728;0,005281525
132744,3;0,005272727
132761;0,005258065
132777,4;0,005260997
132794;0,005260997
132810,5;0,005265396
132827,1;0,005262463
132843,8;0,005269795
132860,3;0,005265396
132877;0,005269795
132893,4;0,005272727
132909,9;0,005258065
132926,8;0,005274194
132943,1;0,005272727
132959,6;0,005271261
132976,6;0,00527566
132992,8;0,005266862
133009,6;0,005282991
133025,9;0,005281525
133042,5;0,00528739
133059,1;0,00529912
133075,6;0,005297654
133093,2;0,005297654
133108,7;0,00529912
133125,6;0,005297654
133142;0,005288857
133158,4;0,005297654
133175;0,005300587
133191,6;0,005335777
133208,1;0,005324047
133224,7;0,005337243
133241,3;0,005316716
133257,8;0,005319648
133274,7;0,005321114
133291;0,005319648
133308,1;0,005326979
133324,1;0,005341643
133340,9;0,005344575
133357,3;0,005341643
133374;0,005334311
133390,8;0,005316716
133407,1;0,005316716
133424,2;0,005316716
133440,1;0,005316716
133457,2;0,005326979
133473,4;0,005318182
133489,8;0,005315249
133506,3;0,005319648
133523,5;0,005319648
133540;0,005309384
133556;0,005302053
133572,6;0,005302053
133589,2;0,00527566
133605,8;0,005288857
133622,3;0,005291789
133638,9;0,005291789
133655,7;0,005272727
133672;0,005271261
133688,6;0,005280059
133705,1;0,005274194
133722,3;0,005285924
133738,9;0,005284457
133754,8;0,005277126
133771,4;0,005285924
133788,1;0,005296188
133804,5;0,005285924
133821,5;0,005278592
133837,7;0,005277126
133854,4;0,005309384
133870,8;0,005303519
133887,4;0,005312317
133903,9;0,005312317
133920,5;0,005306452
133937,1;0,005296188
133953,6;0,005282991
133970,2;0,005290322
133987,4;0,005293255
134003,3;0,005310851
134019,9;0,005325513
134036,5;0,005337243
134053;0,005335777
134069,8;0,005335777
134086,2;0,005324047
134102,8;0,005347508
134119,6;0,005357771
134136;0,005337243
134152,4;0,005326979
134169;0,00533871
134186,2;0,005331378
134202,1;0,005329912
134218,7;0,005319648
134235,3;0,005309384
134252;0,005313783
134268,4;0,005288857
134285;0,005300587
134301,5;0,005294722
134318,2;0,00529912
134334,7;0,00529912
134351,3;0,005296188
134367,8;0,005277126
134384,4;0,005297654
134401,7;0,005297654
134417,5;0,005309384
134434,8;0,005307918
134451;0,005302053
134467,2;0,005321114
134483,8;0,005310851
134500,3;0,005296188
134517,3;0,005291789
134533,6;0,005291789
134550;0,005294722
134566,9;0,005297654
134583,2;0,005297654
134600,3;0,005313783
134616,3;0,005334311
134632,9;0,005337243
134649,5;0,005351906
134666;0,005369502
134682,6;0,005360704
134699,1;0,005356305
134716,1;0,005357771
134732,3;0,005337243
134748,8;0,005324047
134765,4;0,005331378
134782;0,005326979
134798,8;0,005315249
134815,1;0,005315249
134831,7;0,005318182
134848,2;0,005315249
134864,8;0,005321114
134881,6;0,005309384
134897,9;0,005304985
134914,5;0,005346041
134931,1;0,005347508
134947,6;0,00533871
134964,2;0,00533871
134981,1;0,005341643
134997,5;0,005372434
135013,9;0,005347508
135030,9;0,005348974
135047,1;0,005337243
135063,6;0,005337243
135080,2;0,00533871
135096,8;0,00533871
135113,3;0,005322581
135129,9;0,005331378
135146,5;0,005318182
135163,1;0,005331378
135179,9;0,005316716
135196,2;0,005307918
135212,7;0,005304985
135229,7;0,005302053
135245,8;0,005296188
135262,7;0,005291789
135279;0,005293255
135295,5;0,005282991
135312,2;0,005278592
135328,7;0,005285924
135345,3;0,005285924
135362,1;0,005266862
135378,4;0,005255132
135395;0,005237537
135411,7;0,005231672
135428,1;0,005234604
135444,6;0,005231672
135462,1;0,005228739
135477,8;0,005231672
135494,3;0,005231672
135511;0,005234604
135527,5;0,005231672
135544;0,005236071
135560,6;0,00522434
135577,2;0,005266862
135593,7;0,005266862
135610,3;0,005277126
135626,9;0,005277126
135643,8;0,005296188
135660;0,005296188
135676,6;0,005316716
135693,2;0,005321114
135709,7;0,005316716
135726,3;0,005304985
135743;0,005316716
135759,6;0,005296188
135776,4;0,00528739
135792,6;0,00528739
135809,9;0,005293255
135825,7;0,005284457
135842,3;0,005284457
135858,8;0,005249267
135875,4;0,005256598
135891,9;0,005265396
135908,5;0,005258065
135925,1;0,005243402
135941,8;0,005244868
135958,3;0,005239003
135974,8;0,005233138
135991,3;0,005218475
136008,4;0,005225806
136025;0,005225806
136041;0,00518915
136058,1;0,005187683
136074,4;0,005208211
136090,8;0,005190616
136107,7;0,005173021
136123,9;0,005156891
136140,8;0,005168622
136157;0,005171554
136173,6;0,005164223
136190,3;0,005178886
136207,1;0,005174487
136223,4;0,005180352
136239,8;0,00520088
136256,4;0,005206745
136273,2;0,00522434
136289,7;0,005259531
136306,1;0,005274194
136322,7;0,005278592
136339,4;0,005278592
136355,8;0,005288857
136372,4;0,005288857
136388,9;0,005297654
136405,5;0,005281525
136422,8;0,005281525
136438,6;0,005278592
136455,2;0,005278592
136471,8;0,005265396
136488,3;0,005265396
136504,9;0,005297654
136521,5;0,005297654
136538;0,005318182
136554,6;0,005318182
136571,3;0,005306452
136587,7;0,005306452
136604,9;0,005304985
136621;0,005291789
136637,4;0,005288857
136654;0,005272727
136670,8;0,005262463
136687,1;0,005268328
136703,7;0,005288857
136720,3;0,005288857
136736,8;0,005291789
136753,4;0,005302053
136770;0,005293255
136786,5;0,00529912
136803,1;0,005328446
136819,7;0,005332845
136836,3;0,005318182
136852,9;0,005322581
136869,4;0,005306452
136885,9;0,00529912
136902,5;0,005302053
136919,2;0,005296188
136935,8;0,005288857
136952,2;0,005290322
136968,8;0,00528739
136986;0,005307918
137001,9;0,005307918
137018,5;0,005307918
137035,1;0,005307918
137051,8;0,005294722
137068,2;0,005324047
137084,7;0,005348974
137101,3;0,005353373
137117,9;0,005356305
137134,5;0,005351906
137151,2;0,005351906
137167,6;0,005351906
137184,6;0,00535044
137200,9;0,00535044
137217,3;0,005356305
137234,2;0,005356305
137250,9;0,005357771
137267;0,005360704
137283,5;0,005365103
137300,1;0,005360704
137316,7;0,005348974
137333,2;0,005360704
137349,9;0,005359238
137366,4;0,005356305
137383,3;0,005351906
137399,5;0,005366569
137416,1;0,005384164
137432,6;0,005394428
137449,6;0,005394428
137465,8;0,005390029
137482,3;0,005397361
137498,9;0,005397361
137515,5;0,005400294
137532;0,005401759
137548,6;0,005406159
137565,3;0,005379765
137582,1;0,005379765
137598,8;0,005375367
137614,9;0,005370968
137631,8;0,005370968
137648;0,005369502
137664,9;0,005378299
137681,6;0,005369502
137698;0,005337243
137714,4;0,005335777
137730,8;0,005322581
137747,4;0,005335777
137764,4;0,00535044
137780,5;0,005347508
137797,3;0,00535044
137813,8;0,00533871
137830,4;0,005346041
137846,8;0,005370968
137863,4;0,005372434
137879,9;0,005369502
137896,5;0,005379765
137913,1;0,005390029
137929,6;0,005387097
137946,7;0,005387097
137962,8;0,005395894
137979,3;0,005400294
137996,6;0,005394428
138012,5;0,005394428
138029;0,005404692
138045,6;0,005392962
138062,4;0,005398827
138078,9;0,005401759
138095,7;0,005401759
138112,3;0,005395894
138128,5;0,005406159
138145;0,005406159
138161,8;0,005416422
138178,5;0,005422288
138194,7;0,005420821
138211,4;0,005422288
138228,2;0,005422288
138244,4;0,00543695
138261,6;0,005432551
138278,2;0,005432551
138294,1;0,005428153
138310,7;0,005401759
138327,2;0,005359238
138343,8;0,005340176
138360,4;0,005340176
138376,9;0,005331378
138393,5;0,005348974
138410,1;0,005369502
138426,6;0,005357771
138443,2;0,005363637
138459,8;0,005347508
138476,3;0,005347508
138493,1;0,005340176
138511,6;0,005348974
138526;0,005340176
138542,6;0,005322581
138559,3;0,005310851
138575,8;0,005303519
138592,3;0,00526393
138608,9;0,005269795
138625,4;0,005288857
138642,3;0,005288857
138658,6;0,005271261
138675,2;0,005269795
138692,1;0,005258065
138708,3;0,005258065
138725,2;0,005237537
138741,5;0,005237537
138758,1;0,005236071
138774,5;0,005250733
138791,1;0,005247801
138807,7;0,005240469
138824,5;0,00526393
138840,8;0,005271261
138857,4;0,005269795
138874,1;0,005277126
138890,5;0,005277126
138907,1;0,005285924
138923,6;0,005284457
138940,2;0,00528739
138956,8;0,005266862
138973,3;0,005241936
138989,9;0,005249267
139006,6;0,005249267
139023;0,005252199
139039,6;0,005228739
139056,2;0,005228739
139072,7;0,005222874
139089,4;0,005206745
139105,9;0,005209677
139122,7;0,005206745
139139,2;0,005202346
139156,3;0,005192082
139172,1;0,005195015
139188,7;0,005192082
139205,3;0,005187683
139221,8;0,005183285
139238,4;0,005183285
139255;0,005211144
139272;0,005225806
139288,1;0,005222874
139304,7;0,005222874
139321,5;0,005219941
139338,2;0,005225806
139354,4;0,005231672
139370,9;0,005256598
139387,5;0,005256598
139404,1;0,005236071
139420,6;0,005221408
139437,2;0,005221408
139453,8;0,005233138
139470,4;0,005225806
139486,9;0,005233138
139503,8;0,005215542
139520;0,005230205
139536,6;0,005230205
139553,2;0,005239003
139569,8;0,005239003
139586,3;0,005231672
139603,6;0,005284457
139619,4;0,005265396
139636,3;0,005274194
139652,8;0,005271261
139669,5;0,005284457
139685,8;0,005282991
139702,4;0,005280059
139718,8;0,005296188
139735,4;0,005296188
139752,3;0,005269795
139769,3;0,005280059
139785,1;0,005285924
139801,7;0,005284457
139818,2;0,005316716
139834,8;0,005306452
139851,4;0,005302053
139868,1;0,005302053
139884,8;0,005293255
139901,1;0,005272727
139917,6;0,005269795
139934,3;0,005290322
139951,1;0,005284457
139967,4;0,005303519
139983,9;0,005309384
140000,5;0,005303519
140017;0,005303519
140033,6;0,005306452
140050,2;0,005335777
140067,2;0,005354839
140083,3;0,005344575
140099,9;0,005363637
140116,4;0,005368035
140133;0,005363637
140149,6;0,005379765
140166,1;0,005379765
140182,7;0,005379765
140199,3;0,005379765
140215,9;0,005372434
140232,4;0,005351906
140249,9;0,005351906
140265,8;0,005354839
140282,3;0,005359238
140298,9;0,005368035
140315,6;0,005370968
140332,1;0,0053739
140348,4;0,005366569
140365,6;0,005379765
140382,1;0,005376833
140398,1;0,005370968
140415;0,005369502
140431,3;0,005360704
140447,8;0,005360704
140464,7;0,005378299
140480,9;0,005397361
140497,5;0,005397361
140514,2;0,005382698
140530,7;0,005395894
140547,6;0,005428153
140563,7;0,005426686
140580,3;0,00542522
140596,9;0,005457478
140613,5;0,005426686
140630,1;0,005429619
140646,6;0,005432551
140663,1;0,00543695
140679,7;0,005450147
140696,3;0,00544868
140712,8;0,005451613
140729,5;0,005451613
140746;0,005467742
140762,5;0,005467742
140779,2;0,005464809
140795,7;0,005450147
140812,2;0,005450147
140828,8;0,005439883
140845,4;0,005439883
140861,9;0,005457478
140878,5;0,005469208
140895,1;0,005457478
140911,6;0,005454545
140928,2;0,005451613
140944,8;0,005451613
140961,7;0,005479472
140977,9;0,005480939
140994,5;0,005473607
141011;0,005473607
141027,6;0,005469208
141044,3;0,005482405
141060,8;0,005498534
141077,3;0,005502933
141094;0,00548827
141110,4;0,005464809
141127;0,005456012
141143,6;0,005470674
141160,2;0,005479472
141176,9;0,005475074
141193,3;0,005498534
141209,8;0,005502933
141227,2;0,005475074
141243,1;0,005485337
141259,7;0,005482405
141276,1;0,005482405
141292,7;0,005479472
141309,2;0,005479472
141326,4;0,005476539
141342,5;0,005461877
141359;0,005445748
141375,5;0,005445748
141392,1;0,005450147
141408,6;0,005466276
141425,2;0,005467742
141441,8;0,005460411
141458,4;0,005458944
141474,9;0,005456012
141491,5;0,005453079
141508;0,005447214
141524,6;0,005461877
141541,3;0,005464809
141558,1;0,005447214
141574,3;0,005444282
141590,9;0,005420821
141607,5;0,005422288
141624,2;0,005400294
141640,6;0,005400294
141657,1;0,005412024
141674,2;0,005388563
141690,3;0,005403226
141706,8;0,005398827
141723,4;0,005397361
141740;0,005397361
141756,5;0,005404692
141773,1;0,005406159
141789,7;0,005394428
141806,3;0,005382698
141822,8;0,005382698
141839,4;0,005385631
141855,9;0,005385631
141872,7;0,005394428
141889,1;0,005394428
141905,6;0,005409091
141922,5;0,005416422
141938,8;0,005401759
141955,3;0,005409091
141971,9;0,005382698
141988,5;0,005382698
142005;0,005375367
142021,8;0,005384164
142038,3;0,005369502
142054,8;0,005368035
142071,3;0,005368035
142087,9;0,00536217
142104,6;0,005347508
142121,2;0,005347508
142137,6;0,005340176
142154,5;0,005315249
142170,7;0,005312317
142187,3;0,005319648
142204,4;0,005328446
142220,4;0,005326979
142237,5;0,005326979
142253,5;0,005324047
142270,1;0,005313783
142286,9;0,005312317
142303,4;0,005293255
142320,1;0,005297654
142336,4;0,005306452
142353,1;0,005307918
142369,5;0,005309384
142386,1;0,005304985
142402,8;0,005304985
142419,2;0,005325513
142435,8;0,005313783
142452,3;0,005285924
142468,9;0,005285924
142485,5;0,005296188
142502;0,00528739
142518,6;0,005282991
142535,2;0,005274194
142552;0,005274194
142570,6;0,005265396
142584,9;0,005290322
142601,7;0,005293255
142618;0,005288857
142634,7;0,005300587
142651,2;0,005316716
142668,1;0,005321114
142684,8;0,005316716
142700,8;0,005319648
142717,4;0,005319648
142734;0,005312317
142750,5;0,005312317
142767,1;0,005312317
142783,9;0,005303519
142800,7;0,005307918
142816,9;0,005256598
142833,4;0,005237537
142850,3;0,005228739
142866,5;0,005227273
142883,1;0,005236071
142899,7;0,005237537
142916,2;0,005225806
142933,1;0,005221408
142949,3;0,005221408
142965,9;0,005222874
142982,8;0,00521261
142999,1;0,005219941
143015,6;0,005233138
143032,2;0,005233138
143048,8;0,005246334
143065,3;0,005228739
143081,9;0,005230205
143098,5;0,005243402
143115,3;0,005255132
143131,6;0,005265396
143148,1;0,005265396
143164,7;0,005255132
143181,3;0,005244868
143197,8;0,005234604
143214,4;0,005228739
143231;0,005228739
143247,7;0,005247801
143264,3;0,005244868
143280,9;0,005247801
143297,2;0,005237537
143314,2;0,005259531
143330,4;0,005259531
143347;0,005272727
143363,5;0,005272727
143380,1;0,005281525
143396,6;0,005281525
143413,2;0,005281525
143429,8;0,005277126
143446,3;0,005253666
143462,9;0,00526393
143479,5;0,00526393
143496,7;0,005255132
143512,7;0,005262463
143529,3;0,005272727
143546,1;0,005274194
143562,3;0,005268328
143585,8;0,005280059
143595,4;0,00529912
143612,7;0,005310851
143629,2;0,005309384
143645,2;0,005316716
143661,7;0,005328446
143678,3;0,005346041
143695;0,005347508
143711,4;0,005347508
143728;0,005344575
143744,7;0,00533871
143761,4;0,00533871
143777,7;0,005337243
143794,3;0,005318182
143810,8;0,005319648
143827,6;0,005306452
143843,9;0,005297654
143860,5;0,00529912
143877,1;0,005304985
143893,6;0,005300587
143910,5;0,005300587
143926,8;0,005291789
143943,5;0,005304985
143960,1;0,005291789
143976,6;0,005315249
143993;0,005315249
144009,6;0,005326979
144026,4;0,005322581
144042,7;0,005322581
144059,3;0,005319648
144075,9;0,005313783
144092,4;0,005375367
144109;0,005378299
144125,9;0,005403226
144142,5;0,005400294
144159,1;0,005400294
144175,3;0,005395894
144192;0,005403226
144208,4;0,005398827
144225;0,005398827
144241,5;0,005395894
144258,3;0,005400294
144274,8;0,005390029
144291,3;0,005391496
144307,8;0,005391496
144324,5;0,005395894
144340,9;0,005376833
144357,5;0,005378299
144374,1;0,005388563
144390,6;0,005388563
144407,2;0,005397361
144423,8;0,005400294
144440,3;0,005407625
144456,9;0,005407625
144473,5;0,005400294
144490;0,005394428
144506,6;0,005384164
144523,4;0,005403226
144539,7;0,005398827
144556,3;0,005397361
144573,1;0,005360704
144589,4;0,005360704
144609,2;0,005363637
144622,6;0,005368035
144639,1;0,005372434
144655,7;0,005372434
144672,5;0,005372434
144689,1;0,005378299
144705,8;0,005400294
144722;0,005388563
144738,5;0,005387097
144755,1;0,005387097
144771,7;0,005400294
144788,6;0,005403226
144805,2;0,005406159
144821,4;0,005398827
144837,9;0,00541349
144854,5;0,005445748
144871,1;0,005445748
144888,1;0,005454545
144904,4;0,00543695
144920,8;0,005439883
144937,6;0,005441349
144953,9;0,005441349
144970,9;0,005458944
144987;0,005463343
145003,7;0,005445748
145020,4;0,005445748
145036,8;0,00544868
145053,3;0,005454545
145069,9;0,005463343
145086,9;0,005483871
145103;0,005470674
145119,6;0,005470674
145136,1;0,005453079
145152,7;0,005463343
145169,7;0,005466276
145185,9;0,00548827
145203,2;0,005473607
145219;0,005478006
145235,5;0,005470674
145252,3;0,005467742
145268,7;0,005467742
145285,3;0,005482405
145301,8;0,005479472
145318,4;0,005467742
145335;0,005456012
145351,5;0,005435484
145368,1;0,005432551
145384,9;0,005417889
145401,2;0,005422288
145418;0,005423754
145434,3;0,005431085
145451;0,005435484
145467,5;0,005438417
145484,1;0,005441349
145500,6;0,005441349
145517,3;0,005444282
145534;0,00541349
145550,4;0,005410557
145567;0,005410557
145583,9;0,005450147
145600,1;0,00543695
145616,6;0,005426686
145633,7;0,005426686
145649,7;0,005442815
145666,4;0,005441349
145682,8;0,005434018
145699,4;0,00543695
145716,9;0,005431085
145732,5;0,005435484
145749,1;0,005422288
145765,7;0,005431085
145782,2;0,005431085
145799,8;0,00544868
145815,4;0,00544868
145832,4;0,005470674
145848,5;0,005498534
145865,3;0,005489736
145882,1;0,00548827
145898,4;0,00548827
145914,8;0,005485337
145931,3;0,005489736
145947,9;0,005489736
145964,5;0,005489736
145981,3;0,005473607
145997,6;0,005478006
146014,3;0,005478006
146030,8;0,005478006
146047,3;0,005483871
146063,9;0,005497068
146080,4;0,005467742
146097;0,005463343
146113,7;0,005467742
146130,1;0,005469208
146147,2;0,005466276
146163,5;0,005470674
146179,9;0,005470674
146196,4;0,005470674
146213;0,005460411
146229,7;0,005460411
146246,1;0,005460411
146262,7;0,005467742
146279,6;0,005479472
146295,8;0,005489736
146312,9;0,005489736
146328,9;0,005491202
146345,8;0,005526393
146362,3;0,005545455
146378,6;0,005546921
146395,2;0,005536657
146411,8;0,005527859
146428,3;0,005527859
146444,9;0,005516129
146461,5;0,005514663
146478,5;0,005504399
146495,4;0,005520528
146511,2;0,005520528
146527,7;0,005520528
146544,5;0,005530792
146560,9;0,005526393
146577,8;0,005530792
146594;0,005530792
146610,6;0,005527859
146627,2;0,005526393
146643,8;0,005538123
146660,3;0,005504399
146676,9;0,005461877
146693,4;0,005461877
146710,2;0,005464809
146726,5;0,0055
146743,1;0,005498534
146759,7;0,005501466
146776,5;0,005502933
146792,8;0,005498534
146809,4;0,00551173
146826;0,005510264
146842,8;0,00548827
146859,3;0,00548827
146875,6;0,005473607
146892,8;0,005486804
146908,8;0,00548827
146925,7;0,005494135
146941,9;0,005492669
146958,5;0,005482405
146975;0,005483871
146992,1;0,005470674
147008,8;0,005486804
147024,7;0,005467742
147041,3;0,005461877
147058,2;0,005464809
147074,6;0,00544868
147091;0,005439883
147107,6;0,005438417
147124,1;0,005453079
147140,9;0,005450147
147157,3;0,005454545
147173,8;0,005442815
147190,5;0,005442815
147207;0,005441349
147223,5;0,005428153
147240,1;0,005428153
147256,7;0,005447214
147273,2;0,005438417
147289,8;0,005454545
147306,4;0,005464809
147323,1;0,005456012
147339,8;0,005463343
147356,1;0,005467742
147372,8;0,005464809
147389,2;0,005464809
147406;0,005478006
147422,4;0,005485337
147438,9;0,005480939
147455,5;0,005483871
147472,5;0,005491202
147489,2;0,00551173
147505,2;0,005516129
147521,8;0,005516129
147538,3;0,005516129
147554,9;0,005507331
147571,4;0,005508798
147588;0,005502933
147604,6;0,005485337
147622;0,005457478
147637,7;0,005429619
147654,3;0,005432551
147671,7;0,005432551
147687,6;0,005414956
147704,2;0,005422288
147720,5;0,005434018
147737,1;0,00543695
147753,7;0,00543695
147770,2;0,005441349
147786,8;0,005457478
147803,4;0,005453079
147820;0,005456012
147836,5;0,005439883
147853,1;0,005439883
147869,6;0,005447214
147886,4;0,005454545
147902,8;0,005442815
147919,3;0,00544868
147935,9;0,005456012
147952,5;0,005456012
147969,7;0,005464809
147985,6;0,005444282
148002,2;0,005445748
148018,8;0,005454545
148035,3;0,005454545
148051,9;0,005435484
148068,5;0,005432551
148085,7;0,005423754
148101,6;0,00541349
148118,7;0,005394428
148134,8;0,005379765
148152;0,005381232
148168,4;0,005379765
148184,9;0,005387097
148201,8;0,005385631
148217,6;0,005391496
148234,1;0,005391496
148250,7;0,005426686
148267,3;0,005419355
148283,8;0,005419355
148300,9;0,005410557
148317,4;0,005416422
148333,6;0,005397361
148350,1;0,005397361
148367;0,005392962
148383,2;0,005372434
148400,1;0,005354839
148416,3;0,005357771
148432,9;0,005375367
148449,5;0,005375367
148466;0,0053739
148482,8;0,005372434
148499,2;0,005372434
148515,7;0,005369502
148532,3;0,005363637
148549,1;0,00535044
148565,5;0,005356305
148582,1;0,005359238
148598,6;0,00533871
148615,1;0,005344575
148631,9;0,005348974
148648,3;0,005347508
148664,8;0,00535044
148681,5;0,005366569
148698,1;0,005384164
148714,6;0,005381232
148731,2;0,005372434
148747,8;0,005365103
148764,3;0,005365103
148780,9;0,005366569
148797,5;0,005348974
148814;0,005347508
148830,6;0,005343108
148847,2;0,005356305
148863,7;0,005357771
148880,3;0,005353373
148896,9;0,005348974
148913,5;0,005372434
148930,6;0,005384164
148946,6;0,005385631
148963,1;0,005385631
148979,7;0,005375367
148996,3;0,005384164
149013,1;0,005384164
149029,8;0,005379765
149046,3;0,005368035
149062,8;0,005379765
149079,2;0,005369502
149095,7;0,005368035
149112,3;0,005368035
149128,8;0,005372434
149145,8;0,005375367
149162;0,005375367
149178,5;0,005376833
149195,1;0,005359238
149212,2;0,005351906
149228,2;0,005365103
149244,8;0,005363637
149261,3;0,005356305
149277,9;0,005346041
149294,5;0,005341642
149311;0,005319648
149327,6;0,005324047
149344,4;0,005319648
149361,3;0,005319648
149377,3;0,005331378
149394,1;0,005318182
149410,6;0,005307918
149427;0,005310851
149443,7;0,005310851
149460,2;0,005313783
149477;0,005284457
149493,6;0,005277126
149509,8;0,005277126
149526,4;0,005285924
149543;0,005278592
149560,3;0,005281525
149576,1;0,005290322
149592,9;0,005290322
149609,3;0,005290322
149626;0,005297654
149642,6;0,005297654
149659;0,005321114
149675,7;0,005319648
149692,1;0,005304985
149708,6;0,005307918
149725,2;0,005304985
149742,5;0,005307918
149758,7;0,00529912
149775,2;0,00529912
149791,5;0,005307918
149808;0,005294722
149824,6;0,005306452
149841,2;0,005274194
149857,8;0,00527566
149874,3;0,005277126
149890,9;0,005272727
149907,4;0,005272727
149924,2;0,005272727
149940,6;0,0052522
149957,3;0,005250733
149973,9;0,005253666
149990,3;0,005240469
150006,8;0,005234604
150023,4;0,005234604
150040;0,005249267
150056,5;0,005236071
150073,2;0,005231672
150089,7;0,005236071
150106,3;0,005225806
150123,2;0,005227273
150139,4;0,005246334
150155,9;0,005246334
150172,5;0,005227273
150189,1;0,005230205
150206,3;0,005241936
150222,3;0,005241936
150238,8;0,005222874
150255,3;0,005225806
150272;0,005225806
150288,5;0,005193548
150305;0,005192082
150322;0,005197947
150338,3;0,005199414
150355;0,00520088
150371,3;0,005197947
150387,9;0,005208211
150404,6;0,005208211
150421,2;0,005221408
150437,6;0,005221408
150454,1;0,00521261
150470,7;0,005222874
150487,3;0,005241936
150503,9;0,005246334
150520,4;0,005253666
150537;0,005256598
150553,7;0,005269795
150570,2;0,005268328
150586,8;0,005277126
150603,2;0,005277126
150619,8;0,005280059
150636,4;0,00528739
150652,9;0,005282991
150669,5;0,00527566
150686,1;0,005269795
150703,8;0,00526393
150720,4;0,005262463
150736,9;0,005278592
150753,5;0,005269795
150770;0,005272727
150786,6;0,005260997
150803,5;0,005278592
150819,8;0,005269795
150836,8;0,005281525
150852,9;0,005288857
150869,5;0,005268328
150886;0,005262463
150902,8;0,005259531
150919,5;0,005239003
150935,9;0,005233138
150952,3;0,005250733
150968,8;0,005271261
150985,4;0,00526393
151002;0,005256598
151018,6;0,00526393
151035,1;0,005262463
151051,8;0,005262463
151068,3;0,005259531
151084,8;0,005259531
151101,4;0,005269795
151118;0,005262463
151135,2;0,005280059
151151,1;0,005280059
151167,9;0,005321114
151184,2;0,005329912
151200,8;0,005328446
151217,3;0,005335777
151234,2;0,005304985
151250,6;0,005310851
151267,5;0,005315249
151283,6;0,005315249
151300,2;0,005335777
151316,9;0,005353373
151333,3;0,005344575
151349,9;0,005344575
151366,4;0,00535044
151383;0,005329912
151399,7;0,005344575
151416,1;0,005337243
151433;0,005337243
151449,3;0,005343108
151465,8;0,005332845
151483;0,005356305
151499,1;0,005344575
151515,5;0,005328446
151532,4;0,005337243
151548,7;0,00535044
151565,3;0,005337243
151582;0,005340176
151598,4;0,005331378
151614,9;0,005337243
151631,5;0,00533871
151648,1;0,005346041
151664,6;0,005346041
151681,6;0,005351906
151697,8;0,005351906
151714,3;0,005351906
151738,8;0,005329912
151747,5;0,005326979
151764,1;0,005326979
151780,9;0,005310851
151797,2;0,005304985
151814,1;0,005304985
151830,4;0,005319648
151847,2;0,005344575
151863,9;0,00535044
151880;0,005337243
151896,6;0,005341643
151913,2;0,005335777
151929,7;0,005354839
151946,3;0,005319648
151962,9;0,005319648
151979,4;0,005303519
151996;0,005307918
152012,6;0,005315249
152029,4;0,005318182
152046;0,005318182
152062,2;0,005322581
152078,9;0,005328446
152095,4;0,005331378
152112,2;0,005332845
152128,5;0,005328446
152145,1;0,005316716
152162,1;0,005307918
152178,2;0,005310851
152195,1;0,005312317
152211,3;0,00529912
152227,9;0,00529912
152245,3;0,005296188
152261;0,005290322
152277,6;0,005290322
152294,2;0,005307918
152310,8;0,005304985
152327,3;0,005306452
152343,9;0,005315249
152360,4;0,005315249
152377;0,005313783
152393,6;0,005316716
152410,3;0,005310851
152426,7;0,005331378
152443,4;0,005331378
152460,1;0,005321114
152476,8;0,005313783
152493,1;0,005294722
152509,8;0,005294722
152526,1;0,005296188
152542,7;0,005303519
152559,3;0,00529912
152575,8;0,005268328
152592,6;0,005269795
152609;0,005280059
152625,5;0,005280059
152642,1;0,005280059
152658,6;0,005281525
152675,2;0,005282991
152691,8;0,00527566
152708,3;0,005281525
152724,9;0,00527566
152741,9;0,005265396
152758;0,005265396
152774,6;0,005271261
152791,2;0,005271261
152807,9;0,005300587
152824,3;0,005302053
152841,1;0,00528739
152857,8;0,005297654
152874;0,005297654
152890,6;0,005281525
152907,2;0,005290322
152923,7;0,005291789
152940,3;0,005288857
152956,8;0,005288857
152973,4;0,005277126
152990;0,005277126
153006,5;0,005250733
153023,3;0,005255132
153040;0,005247801
153056,3;0,005230205
153072,8;0,005215542
153089,4;0,00522434
153105,9;0,00521261
153122,7;0,005206745
153139,1;0,00518915
153155,6;0,005170088
153172,5;0,005155426
153188,8;0,005158358
153205,5;0,005164223
153221,9;0,005161291
153238,5;0,005173021
153255;0,005174487
153271,6;0,005167156
153288,2;0,005161291
153305,2;0,005164223
153322,3;0,005155426
153337,9;0,005164223
153354,5;0,005164223
153371;0,005162757
153387,6;0,005187683
153404,4;0,005180352
153420,9;0,005178886
153437,3;0,005193548
153453,8;0,005195015
153470,4;0,005183285
153487;0,005180352
153503,5;0,005184751
153520,1;0,005183285
153536,7;0,005173021
153553,4;0,005181818
153569,9;0,005180352
153586,8;0,005180352
153603,3;0,005174487
153619,5;0,005178886
153636,1;0,00518915
153652,7;0,005186217
153669,6;0,005175953
153686,1;0,005159824
153702,6;0,005158358
153718,9;0,005170088
153735,6;0,005171554
153753,3;0,005171554
153769,9;0,005171554
153786,5;0,005187683
153803;0,005180352
153819,6;0,005187683
153836,5;0,005153959
153853;0,005153959
153869,5;0,005165689
153885,9;0,005165689
153902,7;0,005167156
153919;0,005171554
153936,2;0,00517742
153952,8;0,005178886
153968,7;0,005209677
153985,5;0,005197947
154001,8;0,005241936
154018,4;0,005228739
154035,1;0,005215542
154051,5;0,005209677
154068,4;0,005230205
154084,7;0,005230205
154102,2;0,005225806
154117,8;0,005228739
154134,4;0,005246334
154151,1;0,005246334
154167,5;0,005249267
154184,1;0,005239003
154200,6;0,005244868
154217,2;0,0052522
154234,7;0,005237537
154250,4;0,005237537
154266,9;0,005244868
154283,5;0,005244868
154300,4;0,005247801
154316,8;0,005269795
154333,5;0,005262463
154350,6;0,00526393
154366,3;0,00526393
154382,9;0,005259531
154399,4;0,005255132
154416;0,0052522
154432,9;0,0052522
154449,3;0,005258065
154465,7;0,005256598
154482,3;0,005262463
154498,8;0,005268328
154515,4;0,005265396
154532;0,00527566
154548,8;0,005244868
154565,1;0,005247801
154582;0,005244868
154598,2;0,005244868
154614,8;0,005244868
154631,5;0,005237537
154647,9;0,005262463
154664,5;0,005253666
154681,1;0,0052522
154697,6;0,005249267
154714,9;0,005244868
154730,8;0,005241936
154747,3;0,005237537
154764,8;0,005233138
154781,3;0,005243402
154798,5;0,005243402
154814,9;0,00522434
154831,6;0,005231672
154847,6;0,005234604
154864,2;0,005239003
154880,9;0,005237537
154897,3;0,005236071
154913,8;0,005236071
154930,4;0,005234604
154947,4;0,005225806
154963,5;0,005233138
154980,1;0,005218475
154996,7;0,005218475
155013,3;0,005233138
155029,8;0,005244868
155046,4;0,005233138
155063;0,005234604
155079,8;0,005250733
155096,1;0,005241936
155112,8;0,0052522
155129,2;0,005253666
155145,8;0,005260997
155162,4;0,005244868
155178,9;0,0052522
155195,5;0,0052522
155212;0,005262463
155228,6;0,005285924
155245,2;0,005274194
155262;0,00527566
155278,4;0,00527566
155294,9;0,005268328
155311,8;0,005272727
155328;0,005278592
155344,6;0,005274194
155361,2;0,005268328
155378,1;0,005284457
155394,3;0,005284457
155410,9;0,005293255
155427,6;0,005274194
155444;0,005265396
155460,8;0,005268328
155477,1;0,005271261
155493,7;0,005280059
155511;0,005280059
155526,8;0,005271261
155543,4;0,00527566
155560,7;0,00527566
155576,5;0,005290322
155593,1;0,005278592
155609,7;0,005271261
155626,2;0,0052522
155642,8;0,005260997
155659,3;0,005260997
155675,9;0,005269795
155692,5;0,005269795
155709,1;0,005277126
155725,6;0,005268328
155742,2;0,00526393
155758,9;0,005277126
155775,4;0,005266862
155791,9;0,005262463
155808,5;0,005250733
155825;0,00528739
155841,6;0,005297654
155858,3;0,005296188
155874,9;0,005285924
155891,3;0,005306452
155907,9;0,005306452
155924,4;0,005294722
155941;0,005300587
155957,9;0,005312317
155974,1;0,005303519
155990,7;0,005281525
156007,3;0,00527566
156023,8;0,005272727
156040,5;0,00527566
156057,6;0,005262463
156073,5;0,005269795
156090,9;0,005269795
156107;0,005272727
156123,9;0,005274194
156139,8;0,005268328
156156,4;0,005266862
156172,9;0,005266862
156189,6;0,005259531
156206,2;0,005259531
156222,8;0,005249267
156239,2;0,005272727
156255,8;0,005249267
156272,5;0,005233138
156288,9;0,005241936
156305,8;0,005255132
156322;0,005255132
156338,8;0,005244868
156355,3;0,005234604
156372,1;0,005239003
156388,3;0,0052522
156405,7;0,005241936
156421,4;0,005237537
156438;0,005256598
156454,6;0,005258065
156471,1;0,005258065
156487,7;0,00526393
156504,3;0,005265396
156520,8;0,005253666
156537,4;0,005259531
156554;0,005256598
156570,5;0,005253666
156587,7;0,005269795
156603,7;0,005268328
156620,8;0,00527566
156636,8;0,00527566
156653,3;0,005284457
156670;0,005268328
156686,8;0,005268328
156703,4;0,005277126
156719,7;0,005277126
156736,2;0,00529912
156752,8;0,005303519
156769,6;0,00529912
156785,9;0,00529912
156802,6;0,005302053
156819,3;0,005303519
156835,9;0,005297654
156852,4;0,005319648
156868,8;0,005312317
156885,3;0,005309384
156901,9;0,005335777
156918,8;0,005322581
156935;0,005319648
156951,5;0,005322581
156968,2;0,005322581
156984,7;0,005322581
157001,3;0,005313783
157018,1;0,005318182
157034,4;0,005326979
157051;0,005325513
157067,6;0,005337243
157084,3;0,005341643
157100,6;0,005335777
157117,4;0,005340176
157133,8;0,005354839
157150,4;0,005366569
157166,9;0,0053739
157183,5;0,005379765
157200,1;0,005384164
157216,8;0,00535044
157234,2;0,005356305
157249,8;0,005357771
157266,3;0,00535044
157282,9;0,005354839
157299,5;0,005363637
157316,2;0,005354839
157332,7;0,00535044
157349,3;0,005347508
157365,9;0,005347508
157382,3;0,005344575
157398,8;0,005344575
157415,7;0,005332845
157432;0,005322581
157448,5;0,005322581
157465,1;0,005337243
157482;0,00533871
157498,4;0,005346041
157514,8;0,005365103
157531,4;0,005351906
157548;0,005356305
157564,5;0,005347508
157581,3;0,005353373
157597,9;0,005348974
157614,2;0,00533871
157631,1;0,00536217
157647,8;0,00536217
157663,9;0,005357771
157680,5;0,005356305
157697;0,005359238
157713,6;0,005335777
157730,2;0,005343108
157746,8;0,005331378
157763,3;0,005326979
157780;0,005331378
157796,5;0,00533871
157813;0,005365103
157829,6;0,005331378
157848;0,005312317
157864,5;0,005326979
157881,1;0,005326979
157897,7;0,005304985
157914,3;0,005309384
157930,8;0,005303519
157947,4;0,005316716
157964;0,005312317
157980,6;0,005303519
157997,1;0,005297654
158013,7;0,005310851
158030,2;0,005312317
158046,8;0,005322581
158063,4;0,005316716
158079,9;0,005328446
158097,2;0,005328446
158113,3;0,005325513
158129,6;0,005319648
158146,2;0,005313783
158162,8;0,005318182
158179,3;0,005315249
158196,1;0,005325513
158212,5;0,005332845
158229,1;0,005332845
158245,7;0,005313783
158262,1;0,005318182
158278,7;0,005307918
158295,3;0,005307918
158311,8;0,005315249
158328,7;0,005302053
158345;0,005291789
158362;0,005291789
158378,1;0,005278592
158394,7;0,005281525
158411,3;0,005294722
158427,8;0,005284457
158444,7;0,005282991
158461;0,005271261
158477,5;0,005280059
158494,2;0,00527566
158510,7;0,00527566
158527,2;0,005274194
158543,8;0,005281525
158560,3;0,005290322
158577,7;0,005296188
158593,5;0,005280059
158610,1;0,005280059
158626,6;0,005282991
158643,2;0,005293255
158659,8;0,005284457
158676,4;0,005293255
158692,9;0,005277126
158709,5;0,005278592
158726;0,005280059
158743;0,005272727
158760;0,005260997
158775,7;0,005260997
158792,3;0,005265396
158808,9;0,005256598
158825,4;0,005239003
158844,3;0,005228739
158860,9;0,0052522
158877,5;0,005239003
158894;0,005231672
158910,6;0,005214076
158927,2;0,005215542
158943,7;0,005211144
158960,3;0,005211144
158976,9;0,005217009
158993,8;0,005215542
159010;0,005214076
159027,3;0,005197947
159043,1;0,005208211
159059,7;0,005202346
159076,4;0,005197947
159092,8;0,005184751
159109,4;0,005187683
159126;0,005183285
159142,5;0,005173021
159159,1;0,005162757
159176,2;0,005145161
159192,3;0,005145161
159208,8;0,005156891
159225,4;0,005168622
159242;0,005183285
159258,5;0,00517742
159275,1;0,00517742
159292;0,005164223
159308,8;0,005171554
159324,8;0,005167156
159341,3;0,005173021
159357,9;0,005190616
159374,5;0,005190616
159391;0,005175953
159407,6;0,005178886
159424,2;0,005181818
159440,7;0,005175953
159457,3;0,005175953
159474,1;0,005174487
159490,4;0,005187683
159507;0,00517742
159523,7;0,005173021
159540,1;0,005173021
159556,7;0,005170088
159573,3;0,005153959
159589,8;0,005153959
159606,5;0,005148094
159623;0,005151026
159639,5;0,005158358
159656,7;0,005181818
159672,8;0,005184751
159689,2;0,005195015
159706;0,005196481
159722,3;0,005195015
159738,9;0,005193548
159755,5;0,005205279
159772,7;0,005208211
159788,6;0,005225806
159805,2;0,005211144
159822,2;0,005211144
159843,5;0,005196481
159855;0,005211144
159871,5;0,005197947
159888;0,005187683
159904,6;0,005192082
159921,6;0,005195015
159937,7;0,00518915
159955,2;0,005195015
159971,3;0,005202346
159987,4;0,005211144
160004,2;0,005211144
160020,8;0,005209677
160037,6;0,005205279
160053,7;0,00520088
160070,3;0,005209677
160086,8;0,005202346
160104,6;0,005199414
160120,3;0,005203812
160137;0,005206745
160153,2;0,005225806
160169,7;0,005225806
160186,2;0,005241936
160203,1;0,005234604
160219,4;0,005230205
160235,9;0,005219941
160253,1;0,005225806
160269,4;0,005233138
160285,6;0,005259531
160302,3;0,005256598
160319,5;0,005244868
160335,6;0,005244868
160351,9;0,00526393
160368,5;0,005268328
160385;0,00527566
160402;0,005256598
160418,2;0,005256598
160434,7;0,005266862
160451,3;0,005259531
160467,8;0,005244868
160484,5;0,005247801
160501;0,005274194
160517,6;0,005268328
160534,4;0,005268328
160550,7;0,005280059
160567,3;0,005285924
160583,9;0,005288857
160600,4;0,005278592
160617;0,005274194
160633,6;0,005271261
160650,1;0,005271261
160666,7;0,005260997
160683,3;0,005260997
160699,8;0,005256598
160716,4;0,00527566
160732,9;0,005277126
160749,6;0,005271261
160766,2;0,005269795
160783,4;0,005259531
160799,3;0,005268328
160815,8;0,005268328
160832,3;0,005260997
160848,9;0,005268328
160865,5;0,005268328
160882;0,005281525
160898,6;0,005280059
160915,5;0,005324047
160931,8;0,005325513
160948,3;0,005312317
160964,9;0,005312317
160981,5;0,005312317
160998,4;0,005316716
161014,6;0,005328446
161031,1;0,005328446
161047,7;0,005328446
161064,5;0,005344575
161080,8;0,005346041
161097,4;0,005344575
161114;0,005346041
161130,9;0,005346041
161147,2;0,005347508
161163,7;0,005351906
161180,2;0,005363637
161197,1;0,005365103
161214;0,005354839
161229,9;0,005357771
161246,5;0,005360704
161263,2;0,005360704
161279,6;0,005385631
161296,2;0,005385631
161312,9;0,005382698
161329,4;0,005372434
161345,9;0,005382698
161362,5;0,005376833
161379;0,005368035
161396,3;0,005357771
161412,2;0,0053739
161429;0,005370968
161445,3;0,005365103
161461,9;0,005357771
161478,5;0,005348974
161495,2;0,005344575
161511,5;0,005334311
161528,2;0,005335777
161544,7;0,005340176
161561,3;0,00533871
161578,2;0,005337243
161594,4;0,005337243
161611,1;0,005335777
161627,5;0,005369502
161644,9;0,00535044
161660,7;0,00535044
161677,4;0,00535044
161693,8;0,005344575
161710,4;0,005337243
161727,2;0,005329912
161744;0,005329912
161760,1;0,005329912
161776,6;0,005331378
161795,4;0,005312317
161810,6;0,005297654
161826,3;0,005316716
161843,5;0,005316716
161859,8;0,005316716
161876,1;0,005335777
161892,6;0,005343108
161909,7;0,005351906
161925,7;0,005360704
161942,8;0,005354839
161959,7;0,005359238
161975,6;0,005351906
161992;0,005365103
162008,6;0,005368035
162025,8;0,005346041
162042,1;0,005348974
162058,3;0,005332845
162074,8;0,005332845
162091,4;0,005328446
162108;0,005324047
162124,7;0,005322581
162141,1;0,005316716
162157,7;0,005316716
162174,4;0,005328446
162191,3;0,005328446
162207,5;0,005328446
162224;0,005312317
162240,7;0,005335777
162257;0,005341643
162273,6;0,005341643
162290,4;0,00529912
162306,8;0,005319648
162323,6;0,005325513
162339,9;0,005328446
162356,5;0,005328446
162373;0,005322581
162389,6;0,005318182
162406,3;0,005310851
162423;0,00529912
162439,3;0,005313783
162455,9;0,005319648
162472,4;0,005332845
162489;0,005326979
162505,5;0,005316716
162522,1;0,005316716
162538,7;0,005316716
162555,3;0,005306452
162572,3;0,005306452
162588,4;0,005302053
162605;0,005304985
162621,6;0,00528739
162638,1;0,005309384
162654,9;0,005310851
162671,2;0,005316716
162687,8;0,005315249
162704,4;0,005322581
162720,9;0,005313783
162737,5;0,005297654
162754,1;0,005293255
162771,5;0,005310851
162787,5;0,005312317
162803,8;0,005304985
162820,3;0,005316716
162836,9;0,005315249
162853,5;0,005313783
162870,8;0,005318182
162886,9;0,005322581
162903,2;0,005300587
162919,7;0,005297654
162936,3;0,005297654
162952,8;0,005291789
162969,7;0,005294722
162986;0,005296188
163002,6;0,00528739
163019,6;0,00528739
163036,2;0,005285924
163052,3;0,005284457
163068,8;0,005272727
163085,6;0,005274194
163102;0,005274194
163118,5;0,005258065
163135,3;0,005266862
163151,7;0,005258065
163168,3;0,005244868
163184,8;0,005244868
163201,8;0,005240469
163217,9;0,005240469
163234,5;0,005244868
163251;0,005247801
163267,6;0,005237537
163284,2;0,005219941
163300,8;0,005218475
163317,6;0,005214076
163334,8;0,005214076
163350,5;0,005205279
163367,2;0,005202346
163384;0,005206745
163400,1;0,005221408
163416,7;0,005215542
163433,3;0,005225806
163449,9;0,005231672
163466,8;0,005231672
163483,1;0,005221408
163499,6;0,005227273
163516,1;0,005239003
163532,7;0,005244868
163549,4;0,005234604
163565,8;0,005253666
163582,4;0,005262463
163599;0,005262463
163615,5;0,005262463
163632,8;0,005250733
163648,7;0,005247801
163665,2;0,005240469
163681,8;0,005250733
163698,8;0,005249267
163714,9;0,005239003
163731,7;0,005231672
163748,1;0,005230205
163764,6;0,005241936
163781,5;0,005243402
163798,1;0,005249267
163814,7;0,005253666
163831,4;0,005241936
163847,8;0,005239003
163864,4;0,005239003
163881,6;0,005239003
163897,6;0,005239003
163914,2;0,005249267
163930,7;0,005199414
163947,2;0,005202346
163963,8;0,00520088
163980,3;0,005209677
163996,9;0,005209677
164013,5;0,005202346
164030;0,005209677
164047,2;0,005221408
164063,3;0,00522434
164079,8;0,005228739
164096,4;0,005233138
164113,3;0,005241936
164129,4;0,005250733
164146,3;0,005250733
164163,1;0,005228739
164179,1;0,005221408
164195,7;0,005221408
164212,6;0,005221408
164228,8;0,00522434
164245,9;0,005236071
164262;0,005234604
164278,7;0,005234604
164295,2;0,005221408
164312,1;0,005218475
164328,7;0,005221408
164344,8;0,005217009
164361,4;0,005221408
164378;0,005234604
164394,6;0,005234604
164411,8;0,005211144
164427,6;0,005231672
164444,2;0,005222874
164460,8;0,005195015
164477,3;0,005195015
164494;0,005206745
164510,5;0,005205279
164527;0,005205279
164543,6;0,005215542
164560,6;0,005227273
164576,9;0,005218475
164593,3;0,005243402
164609,9;0,005249267
164626,5;0,005256598
164643,1;0,005247801
164660,3;0,005243402
164676,5;0,005243402
164693,1;0,005243402
164709,3;0,005255132
164725,8;0,005255132
164743;0,005258065
164760,7;0,005258065
164777,3;0,005239003
164793,9;0,005250733
164810,4;0,00526393
164827;0,005253666
164843,6;0,005239003
164860,1;0,005225806
164876,7;0,005225806
164893,3;0,005219941
164909,8;0,005215542
164926,4;0,005205279
164943;0,005221408
164959,5;0,005221408
164976,3;0,005231672
164992,7;0,005230205
165009,5;0,005219941
165025,8;0,005219941
165042,4;0,005215542
165059;0,00521261
165075,5;0,00521261
165092,1;0,005205279
165108,8;0,005205279
165125,2;0,005215542
165141,8;0,005208211
165158,3;0,005208211
165174,9;0,005203812
165191,8;0,005215542
165208,1;0,005209677
165224,6;0,00522434
165241,2;0,005211144
165258,2;0,005217009
165274,3;0,005218475
165290,9;0,005231672
165307,6;0,005234604
165324;0,005233138
165341,1;0,005237537
165357,8;0,005249267
165374,2;0,005249267
165390,3;0,005244868
165406,8;0,005250733
165423,4;0,005237537
165440;0,005231672
165456,6;0,005225806
165473,1;0,005246334
165489,7;0,005246334
165506,2;0,005233138
165523,3;0,005247801
165539,4;0,005249267
165555,9;0,0052522
165572,5;0,005247801
165589,3;0,0052522
165605,6;0,005250733
165622,2;0,005240469
165638,9;0,005239003
165655,3;0,005230205
165672,6;0,005230205
165688,5;0,00521261
165705;0,005219941
165721,6;0,005218475
165742,2;0,005228739
165758,7;0,005237537
165775,3;0,005241936
165792,2;0,005244868
165808,4;0,005240469
165825;0,005230205
165841,6;0,0052522
165858,1;0,005247801
165874,7;0,0052522
165891,3;0,005266862
165907,8;0,005272727
165925,1;0,005285924
165941,1;0,005280059
165957,6;0,005281525
165974,1;0,005265396
165990,7;0,005265396
166007,2;0,005241936
166024,4;0,0052522
166040,6;0,005228739
166056,9;0,005243402
166073,5;0,0052522
166090,1;0,005247801
166106,7;0,0052522
166123,2;0,005225806
166140;0,005237537
166156,3;0,005244868
166172,9;0,005253666
166189,5;0,005253666
166206,1;0,005249267
166222,8;0,005260997
166239,5;0,005280059
166255,7;0,005269795
166272,3;0,005269795
166289,5;0,005294722
166305,4;0,005300587
166322;0,005291789
166338,6;0,005280059
166355,1;0,00527566
166371,8;0,00526393
166388,3;0,005260997
166404,9;0,005262463
166421,4;0,005258065
166438,5;0,005258065
166454,5;0,005260997
166472,2;0,005253666
166487,7;0,005281525
166504,9;0,005260997
166520,8;0,005228739
166537,4;0,005231672
166553,9;0,005234604
166570,5;0,005225806
166587;0,005225806
166603,6;0,005219941
166620,2;0,005214076
166636,8;0,005215542
166653,3;0,005211144
166669,9;0,005211144
166686,7;0,005219941
166703;0,005225806
166723,1;0,00522434
166736,5;0,005217009
166752,8;0,00522434
166769,6;0,005217009
166785,9;0,005227273
166802,5;0,005218475
166819;0,005225806
166835,6;0,005225806
166852,9;0,005230205
166868,7;0,005240469
166885,3;0,005234604
166901,9;0,005231672
166918,4;0,005236071
166935;0,005237537
166951,5;0,005237537
166968,1;0,005215542
166984,7;0,005218475
167001,2;0,005231672
167017,8;0,005233138
167034,4;0,005255132
167051,8;0,005266862
167067,9;0,005269795
167084,2;0,005269795
167100,8;0,005265396
167117,2;0,005278592
167133,8;0,005284457
167150,6;0,005291789
167166,9;0,005281525
167183,5;0,005284457
167200;0,005291789
167216,9;0,005280059
167233,6;0,005269795
167250,1;0,005274194
167266,9;0,005271261
167282,9;0,00526393
167299,5;0,005265396
167316,1;0,005249267
167332,7;0,005239003
167349,1;0,005239003
167365,7;0,005237537
167382,3;0,005243402
167399,5;0,005228739
167415,4;0,005228739
167432;0,005231672
167448,5;0,005234604
167465,2;0,005236071
167481,7;0,005231672
167498,5;0,005231672
167514,8;0,005244868
167531,7;0,005236071
167547,9;0,005228739
167564,6;0,005219941
167581,4;0,005218475
167597,7;0,005217009
167614,2;0,005217009
167630,8;0,005221408
167647,3;0,005225806
167664,1;0,005225806
167680,5;0,005236071
167697,2;0,005236071
167715,1;0,005239003
167731,6;0,0052522
167748,2;0,0052522
167764,8;0,0052522
167781,3;0,005256598
167797,9;0,005241936
167814,5;0,005243402
167831,1;0,005249267
167847,9;0,005237537
167864,5;0,005240469
167880,8;0,005233138
167897,3;0,005230205
167914,2;0,005218475
167930,7;0,005206745
167947;0,005206745
167963,6;0,005206745
167980,1;0,005209677
167996,7;0,005236071
168013,3;0,005236071
168029,8;0,005233138
168046,8;0,005247801
168063;0,005231672
168079,5;0,005236071
168096,1;0,005231672
168112,7;0,005230205
168129,5;0,005237537
168145,8;0,005243402
168162,4;0,005231672
168178,9;0,005225806
168195,5;0,005222874
168212,3;0,005218475
168228,7;0,005205279
168245,2;0,005209677
168261,8;0,005209677
168278,4;0,005199414
168295;0,00520088
168311,5;0,005175953
168328,3;0,005175953
168345,1;0,005186217
168361,7;0,005186217
168378,1;0,005211144
168394,5;0,005231672
168410,9;0,005225806
168427,8;0,005234604
168444,8;0,005236071
168460,6;0,005239003
168477,1;0,005211144
168493,7;0,005244868
168510,3;0,005244868
168526,8;0,005271261
168543,4;0,005274194
168560,3;0,005274194
168576,6;0,005284457
168593,5;0,005284457
168609,7;0,005288857
168626,3;0,005268328
168643,2;0,005284457
168659,7;0,005271261
168676;0,005271261
168692,5;0,005259531
168709,2;0,005262463
168725,7;0,00527566
168742,2;0,00527566
168759,2;0,005281525
168775,7;0,005281525
168792;0,005281525
168808,5;0,005256598
168825,5;0,005258065
168841,8;0,005259531
168858,9;0,005271261
168874,7;0,005269795
168891,7;0,005285924
168907,9;0,005290322
168924,5;0,005291789
168941,6;0,005291789
168957,6;0,005290322
168974,3;0,005290322
168991,2;0,005297654
169007,3;0,005302053
169024,2;0,005293255
169040,7;0,005294722
169057,3;0,005284457
169073,5;0,00528739
169090,5;0,005291789
169106,7;0,00528739
169123,3;0,005304985
169140,2;0,005304985
169156,4;0,005300587
169173,4;0,005280059
169190,2;0,005285924
169206,1;0,005288857
169222,7;0,005293255
169239,7;0,005303519
169255,8;0,005312317
169272,4;0,005309384
169288,9;0,005312317
169305,6;0,005335777
169322;0,005335777
169338,6;0,005312317
169355,2;0,005290322
169371,8;0,005304985
169388,4;0,005304985
169404,9;0,005300587
169421,7;0,005296188
169438;0,005312317
169454,8;0,005313783
169471,4;0,005313783
169487,7;0,005310851
169504,3;0,005318182
169521;0,005307918
169537,4;0,005313783
169554;0,005313783
169570,5;0,005312317
169587,1;0,005332845
169603,7;0,005332845
169620,2;0,005326979
169636,8;0,005326979
169653,4;0,005344575
169670,3;0,005354839
169692;0,005356305
169708,5;0,005354839
169725,1;0,005353373
169741,7;0,005365103
169758,2;0,00535044
169775,3;0,005360704
169791,3;0,00536217
169807,9;0,00536217
169824,5;0,005369502
169841,1;0,005348974
169857,6;0,00536217
169874,2;0,00536217
169891,2;0,005375367
169907,3;0,005372434
169923,9;0,005376833
169940,5;0,005378299
169957,6;0,005378299
169973,9;0,005375367
169990,6;0,005384164
170006,7;0,005344575
170023,4;0,005357771
170039,9;0,00535044
170056,4;0,005347508
170073,2;0,00536217
170089,9;0,005357771
170106,1;0,00533871
170122,7;0,005353373
170140,1;0,005331378
170155,8;0,005331378
170172,4;0,005322581
170189;0,005321114
170205,5;0,005312317
170222,1;0,005312317
170239,1;0,005309384
170255,2;0,005304985
170272,3;0,005304985
170288,4;0,005312317
170304,9;0,005313783
170321,8;0,005326979
170338,1;0,005319648
170354,9;0,005313783
170371,2;0,005313783
170388;0,005325513
170404,9;0,005324047
170420,9;0,005322581
170437,5;0,005334311
170454,2;0,005322581
170470,6;0,005334311
170487,4;0,005297654
170503,8;0,005303519
170520,6;0,005278592
170536,9;0,005274194
170553,5;0,005272727
170570,5;0,005269795
170586,5;0,005269795
170603,2;0,00526393
170619,7;0,005266862
170636,3;0,005265396
170652,8;0,00526393
170671,3;0,005265396
170687,8;0,005259531
170704,4;0,005259531
170721,4;0,005259531
170738;0,005259531
170754,1;0,005258065
170770,8;0,005271261
170787,4;0,005271261
170803,8;0,005277126
170820,7;0,005269795
170836,9;0,005266862
170853,5;0,005259531
170870,1;0,005259531
170886,8;0,005259531
170903,2;0,005262463
170919,8;0,005262463
170936,3;0,005244868
170952,9;0,005265396
170969,5;0,005281525
170986;0,005274194
171002,6;0,005266862
171019,2;0,005266862
171035,7;0,005277126
171052,5;0,005278592
171068,8;0,00528739
171085,4;0,005284457
171102,2;0,005278592
171118,5;0,00526393
171135,1;0,005253666
171152;0,005255132
171168,3;0,00526393
171184,8;0,005271261
171201,5;0,005255132
171218;0,005255132
171234,5;0,005255132
171251,4;0,005260997
171267,8;0,005246334
171284,2;0,005246334
171300,8;0,005243402
171317,4;0,005244868
171333,9;0,005255132
171350,5;0,005262463
171367;0,005259531
171383,6;0,005255132
171400,2;0,005258065
171416,8;0,005260997
171433,3;0,005249267
171449,9;0,005249267
171466,5;0,005265396
171483;0,005260997
171499,6;0,005260997
171516,1;0,005290322
171532,7;0,005290322
171549,5;0,005296188
171566,3;0,005302053
171582,8;0,005312317
171599;0,005303519
171615,6;0,005300587
171632,1;0,005297654
171650,8;0,005321114
171665,3;0,005302053
171681,8;0,005316716
171698,6;0,005285924
171715;0,005282991
171731,9;0,005284457
171748,3;0,005284457
171765,5;0,005281525
171781,2;0,005281525
171798;0,005281525
171814,3;0,005297654
171831;0,005294722
171847,5;0,00528739
171864;0,005274194
171880,7;0,005274194
171897,2;0,005282991
171914,5;0,005306452
171930,3;0,005306452
171947;0,00529912
171963,5;0,005313783
171980,5;0,005309384
171996,6;0,005309384
172013,2;0,005307918
172029,7;0,005335777
172046,5;0,005334311
172062,8;0,005328446
172079,4;0,005328446
172096;0,005343108
172112,7;0,005344575
172129,3;0,005341643
172145,7;0,005341643
172162,3;0,005344575
172178,8;0,005344575
172195,4;0,005341643
172212,2;0,005348974
172228,5;0,005372434
172245,5;0,005387097
172261,7;0,005376833
172278,2;0,005388563
172294,8;0,005397361
172311,9;0,005388563
172328,2;0,005387097
172344,5;0,005388563
172361;0,005390029
172377,6;0,005368035
172394,2;0,005379765
172410,8;0,005379765
172427,3;0,005385631
172443,9;0,005385631
172460,5;0,005392962
172477;0,005403226
172493,8;0,005432551
172510,1;0,005442815
172527;0,005458944
172543,3;0,005467742
172559,9;0,005472141
172576,9;0,005482405
172593,4;0,005491202
172609,5;0,005510264
172626,1;0,005510264
172645,4;0,005520528
172659,3;0,005519062
172675,8;0,005538123
172692,6;0,005533725
172709;0,005543988
172725,5;0,005552786
172742,1;0,005543988
172758,7;0,005532258
172775,4;0,005519062
172791,8;0,005519062
172808,3;0,005519062
172824,9;0,005524927
172841,5;0,005524927
172858,6;0,005524927
172874,6;0,005526393
172891,2;0,005520528
172907,8;0,005516129
172924,3;0,005519062
172940,9;0,005519062
172957,9;0,005494135
172974,4;0,005492669
172990,9;0,005494135
173007,7;0,005495601
173024,4;0,005497068
173040,9;0,005517595
173056,9;0,005501466
173073,4;0,005475074
173090,3;0,005498534
173107;0,0055
173123,1;0,00551173
173139,7;0,005516129
173156,3;0,005494135
173172,8;0,005505865
173189,4;0,005521994
173206,8;0,005526393
173222,5;0,005514663
173239,1;0,005521994
173255,7;0,005521994
173272,2;0,005526393
173289;0,00551173
173305,4;0,00552346
173321,9;0,00553519
173338,8;0,005530792
173355,1;0,005541056
173371,7;0,00553959
173388,2;0,005545455
173404,8;0,005555719
173422,1;0,005561584
173438;0,005561584
173454,5;0,00555132
173471;0,00555132
173487,6;0,005548387
173504,2;0,005538123
173520,7;0,00553959
173537,3;0,00553519
173553,8;0,005552786
173570,4;0,005533725
173587;0,005530792
173603,5;0,005520528
173620,1;0,005526393
173636,7;0,00551173
173653,3;0,005505865
173669,8;0,005505865
173686,4;0,005494135
173703;0,005492669
173719,5;0,00548827
173736,1;0,00548827
173752,7;0,005495601
173769,2;0,005491202
173785,8;0,005494135
173802,4;0,00551173
173819,3;0,005516129
173835,6;0,005519062
173852;0,005532258
173869,1;0,00553959
173885,8;0,005545455
173901,8;0,005530792
173918,3;0,005524927
173935;0,00553959
173952,4;0,00556305
173968,4;0,005561584
173984,6;0,005557185
174001,5;0,00555132
174017,7;0,005555719
174034,3;0,005552786
174050,9;0,005567449
174067,4;0,005567449
174084;0,005573314
174100,6;0,005576246
174117,1;0,005567449
174133,7;0,005567449
174150,3;0,005565982
174166,8;0,005580645
174183,6;0,005580645
174200;0,005558651
174216,7;0,005543988
174233,4;0,005545455
174250;0,00555132
174266,2;0,005552786
174282,8;0,005552786
174299,5;0,00553519
174315,9;0,005521994
174332,5;0,005530792
174349;0,005529325
174365,7;0,005521994
174382,2;0,005526393
174398,8;0,005502933
174415,3;0,005492669
174431,9;0,005502933
174448,5;0,005501466
174465;0,005505865
174481,9;0,005504399
174498,2;0,005457478
174514,7;0,005457478
174531,3;0,005456012
174547,8;0,00544868
174564,4;0,005458944
174581,9;0,00544868
174597,7;0,005439883
174614,1;0,00542522
174630,7;0,00542522
174648;0,005419355
174664;0,005394428
174680,5;0,005390029
174697;0,005398827
174713,5;0,005384164
174730,1;0,005388563
174746,9;0,005394428
174763,2;0,005394428
174779,8;0,005384164
174796,5;0,005366569
174812,9;0,005381232
174829,5;0,005384164
174846,3;0,005388563
174862,6;0,005385631
174879,4;0,005391496
174895,8;0,005403226
174912,4;0,005394428
174928,9;0,005388563
174945,5;0,005385631
174962;0,005384164
