76632,07;0,004980939
76648,75;0,004972141
76665,27;0,004972141
76681,77;0,004964809
76698,47;0,00494868
76714,91;0,004957478
76731,48;0,004958944
76754,95;0,004950147
76771,52;0,004950147
76788,15;0,004950147
76804,66;0,004954545
76821,22;0,004942815
76837,87;0,004938417
76854,35;0,004934018
76871,05;0,004944282
76887,49;0,004944282
76911,97;0,004941349
76928,55;0,004931085
76945,44;0,004942815
76961,67;0,004960411
76978,24;0,004964809
76999,87;0,004983871
77012,35;0,005
77029,3;0,004989736
77045,68;0,004983871
77065,53;0,004975074
77082,1;0,004980939
77098,67;0,004980939
77115,23;0,004986804
77132,26;0,004989736
77148,42;0,004992669
77164,93;0,004979472
77181,57;0,004985337
77198,07;0,004978006
77218,63;0,004989736
77235,2;0,00498827
77251,77;0,005007331
77268,34;0,005002933
77284,91;0,005004399
77301,47;0,005004399
77318,03;0,004998534
77334,6;0,005030792
77351,75;0,005054252
77374,22;0,005057185
77390,79;0,005052786
77407,76;0,005065983
77423,93;0,005058651
77440,5;0,005055719
77457,06;0,005055719
77473,63;0,005035191
77490,2;0,005039589
77506,76;0,005039589
77527,31;0,005061584
77543,88;0,005068915
77560,91;0,00506305
77577,02;0,00506305
77593,59;0,005087977
77610,16;0,00509824
77626,72;0,005095308
77643,52;0,005096774
77660,36;0,005090909
77683,04;0,005090909
77699,76;0,005090909
77716,89;0,005090909
77735,19;0,005090909
77751,76;0,005092375
77768,32;0,005089443
77784,89;0,005083578
77801,45;0,005079179
77818,03;0,005080645
77840,47;0,005071848
77857,23;0,005093842
77873,61;0,005082111
77890,38;0,005082111
77906,74;0,00508651
77923,55;0,00507478
77939,93;0,00507478
77956,75;0,00507478
77973,15;0,005065983
77999,24;0,005054252
78016,27;0,005055719
78032,38;0,005055719
78048,95;0,00506305
78065,52;0,005058651
78082,09;0,005042522
78099,1;0,005043988
78115,97;0,005045454
78131,78;0,005045454
78151,98;0,005039589
78168,55;0,005039589
78185,32;0,005051319
78201,69;0,005043988
78218,26;0,005048387
78234,92;0,005048387
78251,71;0,005048387
78268,04;0,005051319
78284,63;0,005052786
78307,55;0,005052786
78324,42;0,005052786
78341,12;0,005045454
78357,26;0,005033724
78373,83;0,005039589
78390,39;0,005038123
78406,95;0,005038123
78423,61;0,005029325
78440,24;0,005029325
78470,3;0,005043988
78486,87;0,005033724
78503,43;0,005036657
78520,09;0,005030792
78536,57;0,005030792
78553,13;0,005008798
78569,71;0,005008798
78586,27;0,005008798
78602,84;0,005
78625,84;0,004992669
78642,41;0,004972141
78642,41;0,004992669
78662,41;0,004994135
78679,86;0,004992669
78695,75;0,005001466
78712,16;0,005001466
78728,68;0,005039589
78745,63;0,005045454
78761,91;0,005042522
78778,38;0,005054252
78794,95;0,005010264
78817,52;0,005021994
78834,09;0,005039589
78850,76;0,005013197
78867,22;0,005033724
78883,92;0,005033724
78900,35;0,00502346
78917,15;0,005013197
78933,48;0,005026393
78950,36;0,005036657
78973,69;0,005041056
78991,02;0,005065983
79006,82;0,005079179
79023,39;0,005077713
79039,95;0,005070381
79056,52;0,00506305
79073,09;0,00506305
79089,77;0,00506305
79106,48;0,005070381
79129,18;0,005077713
79145,8;0,005058651
79162,32;0,005058651
79178,88;0,005068915
79195,45;0,005068915
79212,02;0,005071848
79228,59;0,005058651
79245,16;0,005057185
79262,11;0,005082111
79284,81;0,005076246
79301,7;0,005076246
79318,33;0,005070381
79334,52;0,005021994
79351,76;0,005021994
79367,66;0,005024927
79384,23;0,004995601
79402,36;0,004997068
79418,93;0,005010264
79441,22;0,004997068
79458,23;0,004997068
79474,37;0,00497654
79490,92;0,004967742
79507,52;0,004985337
79524,5;0,004985337
79540,79;0,004985337
79557,19;0,004985337
79573,75;0,004985337
79597,27;0,004972141
79613,84;0,00497654
79630,91;0,00497654
79646,98;0,004954545
79663,55;0,004942815
79680,13;0,004942815
79696,68;0,004944282
79713,39;0,004944282
79730,26;0,004944282
79750,59;0,004944282
79767,16;0,004944282
79783,73;0,004944282
79800,3;0,004950147
79816,91;0,004947214
79833,44;0,004947214
79850;0,004950147
79867,02;0,004950147
79883,13;0,004950147
79907,41;0,004920821
79923,98;0,004920821
79940,55;0,004920821
79957,11;0,004931085
79973,68;0,004931085
79990,24;0,004931085
80006,81;0,004931085
80023,38;0,00493695
80039,95;0,004910557
80063,25;0,004910557
80079,82;0,004910557
80096,72;0,004910557
80113,13;0,004910557
80129,52;0,004910557
80146,27;0,004910557
80162,65;0,004897361
80179,22;0,004897361
80196,23;0,004897361
80219,82;0,004897361
80236,39;0,004957478
80253,14;0,004969209
80269,53;0,004978006
80286,09;0,004978006
80303,04;0,004985337
80319,23;0,00497654
80336,34;0,00497654
80352,42;0,00497654
80372,21;0,00497654
80388,79;0,00497654
80405,34;0,00497654
80421,91;0,004975074
80438,57;0,005004399
80455,04;0,005010264
80471,92;0,00501173
80490,02;0,005032258
80506,66;0,00502346
80527,32;0,005026393
80544,01;0,005030792
80560,45;0,005030792
80577,02;0,005030792
80594,14;0,005030792
80610,16;0,005033724
80626,73;0,005033724
80643,29;0,005033724
80659,85;0,005033724
80676,55;0,005033724
80698,84;0,005033724
80715,41;0,005030792
80732,24;0,005030792
80749,45;0,005027859
80765,12;0,005019062
80781,99;0,005024927
80798,29;0,005010264
80814,95;0,005021994
80831,67;0,005021994
80853,63;0,005021994
80870,21;0,005036657
80886,77;0,005029325
80904,08;0,005038123
80920,41;0,005042522
80936,46;0,005043988
80953,03;0,005039589
80969,59;0,005068915
80986,16;0,005046921
81021,3;0,005058651
81037,97;0,005052786
81054,45;0,005041056
81071;0,005041056
81088,06;0,005051319
81104,13;0,005029325
81120,8;0,004992669
81137,26;0,004992669
81163,02;0,004991203
81179,59;0,005
81196,16;0,004989736
81212,73;0,005019062
81229,29;0,005026393
81245,86;0,005007331
81262,42;0,004978006
81279,17;0,004978006
81295,55;0,005026393
81318,3;0,005026393
81334,88;0,004992669
81351,44;0,004995601
81368,03;0,004975074
81384,88;0,00498827
81401,15;0,004966276
81417,71;0,004972141
81434,27;0,004970674
81450,84;0,00497654
81471,52;0,004979472
81488,09;0,004994135
81504,66;0,004994135
81521,23;0,005
81537,78;0,005
81555,27;0,005
81572,57;0,005
81587,59;0,005010264
81604,05;0,005014663
81626,42;0,005014663
81643,24;0,005014663
81660,13;0,005014663
81676,24;0,005014663
81692,78;0,005065983
81709,25;0,005064516
81725,85;0,005073314
81742,4;0,005071848
81759,42;0,005071848
81780,17;0,005071848
81796,74;0,005071848
81813,31;0,005057185
81829,88;0,005057185
81846,66;0,005057185
81863,06;0,005057185
81879,65;0,005057185
81896,15;0,005054252
81912,92;0,005054252
81940,93;0,005054252
81957,51;0,005058651
81974,07;0,005058651
81990,77;0,005054252
82007,22;0,005064516
82023,77;0,005064516
82040,37;0,005071848
82057,23;0,005071848
82073,47;0,005071848
82096,55;0,005061584
82113,12;0,005064516
82129,69;0,005079179
82146,27;0,005079179
82162,82;0,005079179
82179,38;0,005079179
82196,12;0,005079179
82212,52;0,005067449
82229,09;0,005067449
82249,63;0,005067449
82266,2;0,005073314
82282,77;0,005077713
82299,33;0,005077713
82315,91;0,005077713
82332,64;0,005077713
82349,94;0,00508651
82365,77;0,005077713
82382,28;0,005095308
82404,93;0,005061584
82421,5;0,005061584
82438,06;0,005061584
82454,63;0,005061584
82471,2;0,005042522
82487,77;0,005042522
82504,44;0,005038123
82520,9;0,005042522
82537,75;0,005042522
82560,27;0,005061584
82576,83;0,005061584
82593,41;0,005035191
82609,96;0,005048387
82626,86;0,005048387
82643,56;0,005038123
82660,48;0,005038123
82676,42;0,005021994
82693,29;0,005035191
82716,95;0,005021994
82735,95;0,005033724
82750,08;0,005016129
82766,67;0,00502346
82783,24;0,005019062
82799,99;0,005029325
82816,34;0,005029325
82832,91;0,00502346
82849,48;0,005033724
82872,93;0,005055719
82889,5;0,005041056
82906,07;0,005041056
82922,64;0,005041056
82939,44;0,005041056
82955,8;0,005041056
82972,34;0,005035191
82988,9;0,005014663
83005,47;0,005014663
83029,7;0,005014663
83046,66;0,005014663
83062,85;0,005049854
83079,8;0,005061584
83096,67;0,005041056
83112,53;0,005070381
83129,38;0,005036657
83145,67;0,005024927
83162,25;0,00502346
83187,17;0,005041056
83203,78;0,005014663
83220,29;0,005013197
83236,85;0,005021994
83256,63;0,005026393
83270;0,005013197
83286,56;0,005016129
83303,13;0,005033724
83320,06;0,005027859
83343,73;0,005048387
83360,75;0,005005865
83376,87;0,005016129
83393,43;0,005038123
83410,57;0,005038123
83427,05;0,005027859
83443,13;0,005042522
83460,15;0,005046921
83476,27;0,005033724
83500,09;0,005032258
83516,66;0,005032258
83534,23;0,005032258
83550,24;0,005027859
83566,35;0,00502346
83582,91;0,005039589
83599,8;0,005039589
83616,05;0,005049854
83632,64;0,005036657
83655,2;0,005026393
83672,55;0,004967742
83689,46;0,004956012
83706,31;0,004963343
83722,59;0,004957478
83739,16;0,004967742
83755,73;0,004953079
83772,37;0,00497654
83788,87;0,004992669
83810,07;0,004972141
83826,65;0,004972141
83843,21;0,005002933
83860,03;0,005005865
83876,34;0,004986804
83892,91;0,004978006
83909,48;0,004972141
83926,49;0,004972141
83943,38;0,004983871
83967,91;0,004961877
83984,52;0,004961877
84001,05;0,004956012
84017,61;0,004956012
84034,17;0,004964809
84050,74;0,004975074
84067,3;0,004963343
84083,87;0,004960411
84100,44;0,004978006
84125,66;0,004997068
84142,25;0,005002933
84158,79;0,004983871
84175,47;0,004983871
84192,97;0,004973607
84209,54;0,004973607
84226,13;0,004975074
84242,94;0,004975074
84259,3;0,004970674
84284,88;0,004972141
84301,55;0,004975074
84318,02;0,004980939
84334,58;0,004970674
84351,16;0,004986804
84367,71;0,004972141
84384,72;0,004970674
84400,89;0,004978006
84417,41;0,004979472
84441,02;0,004972141
84457,59;0,004973607
84474,34;0,004941349
84490,78;0,004938417
84507,3;0,004947214
84523,86;0,004957478
84540,74;0,004958944
84557,18;0,004960411
84574,06;0,004967742
84596,75;0,004964809
84613,33;0,004966276
84630,16;0,004945748
84646,45;0,004934018
84663,03;0,004932551
84679,62;0,004928153
84696,15;0,004929619
84712,83;0,004932551
84729,3;0,004923754
84751,67;0,004954545
84768,74;0,004954545
84785,11;0,004964809
84801,57;0,004963343
84818,63;0,004935484
84834,52;0,004935484
84851,07;0,004935484
84868,02;0,004941349
84884,2;0,004941349
84908,2;0,004956012
84924,95;0,004956012
84942,62;0,004935484
84959,19;0,004932551
84975,75;0,004926686
84992,63;0,004909091
85008,89;0,004897361
85025,88;0,004898827
85042,73;0,004884164
85065,64;0,004884164
85082,39;0,004885631
85098,78;0,004876833
85115,34;0,004859237
85131,91;0,004859237
85148,48;0,004860704
85165,2;0,004860704
85181,61;0,004860704
85198,94;0,004860704
85221,63;0,004857771
85238,2;0,004857771
85254,76;0,004854839
85271,35;0,004860704
85287,9;0,004863637
85305,08;0,004866569
85321,03;0,004870968
85337,6;0,004882698
85354,24;0,004872434
85380,25;0,004898827
85396,97;0,004900293
85413,77;0,004926686
85429,96;0,004920821
85446,52;0,004920821
85463,09;0,004922288
85480;0,004931085
85496,23;0,004931085
85512,8;0,004945748
85535,85;0,004938417
85552,42;0,004917888
85568,99;0,004919355
85585,55;0,004910557
85602,12;0,004910557
85618,69;0,004903226
85639,36;0,004904692
85651,82;0,004897361
85668,44;0,004891496
85691,49;0,004906158
85708,08;0,004906158
85724,63;0,004885631
85741,64;0,004863637
85757,76;0,004869502
85774,33;0,004872434
85790,89;0,004875367
85807,45;0,004866569
85824,45;0,004872434
85846,84;0,004865102
85863,41;0,0048739
85879,98;0,004876833
85896,67;0,004890029
85913,12;0,004892962
85929,68;0,004891496
85946,37;0,004909091
85963,02;0,00491349
85979,55;0,00491349
86000,68;0,00491349
86017,58;0,004916423
86033,81;0,004931085
86050,38;0,004919355
86066,95;0,004894428
86083,88;0,004900293
86100,25;0,004900293
86117,11;0,004879766
86133,22;0,004879766
86156,92;0,004869502
86173,57;0,004869502
86190,05;0,004879766
86206,62;0,004860704
86223,18;0,004853372
86239,75;0,004846041
86256,32;0,004834311
86273,22;0,004834311
86289,59;0,004812317
86314,16;0,004829912
86330,72;0,004832845
86348,13;0,004835777
86365,71;0,004832845
86382,27;0,004844575
86398,84;0,00483871
86415,41;0,00483871
86431,98;0,004841642
86448,54;0,004847507
86469,88;0,00483871
86486,45;0,004853372
86503,32;0,004853372
86547,3;0,004857771
86563,99;0,004854839
86580,47;0,004860704
86597;0,004879766
86613,56;0,004868035
86635,41;0,004895894
86651,98;0,004895894
86668,66;0,004895894
86685,13;0,004909091
86701,68;0,004909091
86718,25;0,004909091
86734,82;0,004904692
86751,38;0,00490176
86767,95;0,004916423
86790,5;0,004909091
86807,8;0,004912023
86823,63;0,004904692
86840,2;0,004929619
86856,77;0,004942815
86873,64;0,004947214
86889,9;0,00494868
86906,66;0,004935484
86923,03;0,004929619
86944,62;0,004944282
86961,35;0,004944282
86977,75;0,004939883
86994,54;0,004939883
87010,89;0,004939883
87027,49;0,004939883
87044,28;0,004954545
87060,68;0,004954545
87077,16;0,004954545
87099,64;0,004954545
87116,21;0,004954545
87133,5;0,004954545
87149,34;0,004954545
87166,2;0,004954545
87182,48;0,004954545
87201;0,004954545
87217,57;0,004954545
87234,13;0,004939883
87258,45;0,004939883
87275,31;0,004939883
87291,59;0,004939883
87309,08;0,004941349
87325,91;0,004941349
87342,28;0,004941349
87358,77;0,004941349
87375,34;0,004932551
87391,91;0,004932551
87416,12;0,004929619
87432,68;0,004929619
87449,41;0,004929619
87465,81;0,004929619
87482,64;0,004929619
87498,95;0,004931085
87515,88;0,004931085
87532,24;0,004923754
87548,65;0,004926686
87571,52;0,004944282
87588,3;0,004975074
87604,67;0,00498827
87621,52;0,004983871
87637,9;0,004979472
87654,36;0,004975074
87671,13;0,00497654
87688,03;0,004970674
87704,05;0,004964809
87726,55;0,004982405
87743,11;0,005007331
87759,95;0,004979472
87776,31;0,004970674
87792,81;0,004958944
87809,66;0,00494868
87827,21;0,004964809
87843,79;0,004951613
87860,34;0,004942815
87882,55;0,004914956
87899,12;0,004926686
87915,77;0,00494868
87933,14;0,004939883
87949,14;0,004922288
87965,38;0,00490176
87981,95;0,004906158
87998,52;0,004906158
88015,5;0,004894428
88039,33;0,004903226
88055,9;0,004914956
88072,46;0,004895894
88089,03;0,004907625
88105,6;0,004909091
88122,19;0,004909091
88139,41;0,004922288
88155,3;0,004939883
88171,87;0,004939883
88197,7;0,004917888
88214,36;0,004929619
88230,84;0,00493695
88247,57;0,00493695
88263,97;0,00493695
88280,55;0,004942815
88297,13;0,00493695
88314,49;0,00494868
88330,24;0,004951613
88357,71;0,004960411
88374,52;0,004966276
88391,38;0,004941349
88407,41;0,004945748
88424,05;0,004950147
88440,96;0,004963343
88457,12;0,004963343
88473,69;0,004963343
88490,45;0,004963343
88512,29;0,004967742
88528,88;0,004975074
88545,42;0,004975074
88561,99;0,004975074
88578,56;0,004985337
88595,13;0,004975074
88612,09;0,004975074
88628,26;0,004969209
88644,82;0,004960411
88666,24;0,004960411
88682,81;0,004969209
88699,38;0,004969209
88716,28;0,004969209
88732,66;0,004957478
88749,09;0,004961877
88765,69;0,00497654
88782,22;0,004960411
88798,94;0,004947214
88821,19;0,004953079
88838,38;0,004941349
88854,59;0,004963343
88871,51;0,00494868
88887,47;0,00494868
88904,03;0,004941349
88920,59;0,004941349
88937,17;0,004941349
88953,73;0,004932551
88975,53;0,004932551
88992,1;0,004932551
89008,66;0,004953079
89025,23;0,004954545
89042,02;0,004956012
89058,42;0,004939883
89074,94;0,004922288
89091,5;0,004941349
89108,26;0,00493695
89131,89;0,004945748
89148,71;0,004945748
89165,21;0,004960411
89181,6;0,004960411
89198,16;0,004950147
89214,79;0,004939883
89231,29;0,00494868
89247,87;0,004966276
89264,43;0,004964809
89287,09;0,004980939
89303,66;0,005004399
89320,47;0,005004399
89336,8;0,005004399
89354,19;0,005004399
89369,93;0,005013197
89391,3;0,004994135
89408,23;0,004970674
89424,59;0,004975074
89450,77;0,004978006
89467,34;0,004972141
89483,9;0,004972141
89500,48;0,004982405
89517,04;0,004989736
89533,6;0,004991203
89550,35;0,00497654
89566,75;0,004975074
89583,33;0,004973607
89608,85;0,004972141
89625,42;0,004967742
89641,98;0,004985337
89658,77;0,004982405
89675,12;0,004991203
89691,68;0,004997068
89708,25;0,00501173
89724,81;0,005029325
89741,38;0,005045454
89761,8;0,005036657
89779,29;0,005036657
89794,93;0,005036657
89811,55;0,005039589
89828,06;0,005017595
89844,75;0,005005865
89863,27;0,005020528
89880,13;0,00502346
89896,41;0,005026393
89918,76;0,005029325
89935,33;0,005033724
89951,89;0,005036657
89968,89;0,005036657
89985,34;0,005043988
90001,59;0,005041056
90018,48;0,005038123
90034,72;0,005045454
90051,29;0,005045454
90072,82;0,005039589
90089,45;0,005039589
90105,96;0,005038123
90122,53;0,005038123
90139,09;0,005038123
90155,94;0,005045454
90172,45;0,005045454
90188,8;0,005042522
90205,36;0,005027859
90231,33;0,005024927
90247,91;0,005026393
90265,05;0,005036657
90281,05;0,005039589
90297,75;0,005039589
90314,18;0,005039589
90330,75;0,005041056
90347,39;0,005041056
90363,87;0,005033724
90389,08;0,005033724
90405,64;0,005017595
90422,24;0,005017595
90438,77;0,005
90455,34;0,005
90471,91;0,005005865
90488,47;0,005008798
90505,05;0,004985337
90521,61;0,005007331
90544,02;0,005026393
90560,58;0,00501173
90577,2;0,004997068
90593,71;0,005010264
90610,28;0,005010264
90627,02;0,005013197
90643,41;0,005013197
90660,03;0,005016129
90676,55;0,005016129
90709,82;0,005033724
90726,4;0,005035191
90742,97;0,005052786
90759,53;0,005052786
90776,09;0,00502346
90792,66;0,005038123
90809,23;0,005014663
90825,8;0,005013197
90848,45;0,005
90865,03;0,005010264
90881,91;0,005010264
90898,41;0,004991203
90914,79;0,004995601
90931,6;0,004991203
90947,98;0,004972141
90964,43;0,004972141
90981;0,004989736
91001,98;0,004970674
91018,67;0,004967742
91035,17;0,004970674
91051,8;0,004961877
91068,25;0,004960411
91084,81;0,004964809
91101,4;0,004970674
91118,07;0,004979472
91135,34;0,004969209
91158,52;0,004983871
91175,32;0,004972141
91191,67;0,004979472
91208,22;0,004986804
91224,78;0,004992669
91241,38;0,004997068
91257,92;0,004997068
91274,58;0,004992669
91291,05;0,004978006
91315,9;0,004967742
91332,47;0,004985337
91352,02;0,004975074
91368,59;0,004973607
91385,17;0,004964809
91401,72;0,004967742
91418,29;0,004966276
91435,28;0,004966276
91451,43;0,004966276
91476,58;0,00494868
91493,14;0,004966276
91509,71;0,004966276
91526,53;0,004958944
91542,84;0,004983871
91559,41;0,004973607
91575,98;0,00497654
91592,68;0,004951613
91609,11;0,004951613
91631,91;0,004964809
91648,77;0,004960411
91665,06;0,004964809
91681,8;0,004964809
91698,38;0,004970674
91714,74;0,004967742
91731,31;0,004938417
91747,89;0,00493695
91764,6;0,004941349
91786,69;0,004941349
91803,26;0,004942815
91819,83;0,004932551
91836,39;0,004938417
91852,96;0,004942815
91869,55;0,004919355
91886,09;0,004919355
91902,66;0,00492522
91919,44;0,00492522
91942,22;0,004919355
91958,79;0,004900293
91975,35;0,004900293
91991,92;0,004903226
92008,49;0,00490176
92025,09;0,004900293
92041,62;0,004891496
92061,91;0,004900293
92074,75;0,004904692
92097,12;0,004914956
92114,27;0,004920821
92130,25;0,004903226
92146,81;0,004903226
92163,48;0,004931085
92179,95;0,004931085
92196,52;0,004939883
92213,08;0,004926686
92229,65;0,004941349
92246,22;0,004945748
92269,44;0,004945748
92286,01;0,00492522
92302,57;0,004922288
92319,21;0,004906158
92335,71;0,004898827
92352,45;0,004906158
92368,84;0,004906158
92385,41;0,004919355
92401,98;0,004904692
92427,98;0,004894428
92444,55;0,004894428
92462,06;0,004885631
92477,95;0,0048739
92494,3;0,004865103
92510,82;0,004866569
92527,38;0,004868035
92543,95;0,004857771
92560,52;0,004857771
92585,66;0,004828446
92602,23;0,004834311
92618,8;0,004834311
92635,51;0,004813783
92651,93;0,004816716
92668,49;0,004846041
92685,1;0,004840176
92701,63;0,004872434
92718,2;0,004872434
92742,53;0,004897361
92759,1;0,004897361
92775,67;0,004916423
92793,23;0,004923754
92809,8;0,004922288
92826,37;0,004900293
92843,08;0,00491349
92859,68;0,004907625
92876,15;0,004904692
92897,45;0,004914956
92914,02;0,004938417
92930,6;0,004923754
92947,15;0,004923754
92963,72;0,004935484
92980,29;0,004938417
92996,86;0,004935484
93013,42;0,004947214
93030,02;0,004950147
93053,02;0,004934018
93069,59;0,004938417
93086,4;0,004903226
93102,71;0,004920821
93119,29;0,004910557
93136,27;0,004920821
93152,42;0,004919355
93169,11;0,004919355
93185,55;0,004928153
93206,64;0,004934018
93223,22;0,004934018
93239,77;0,004912023
93256,95;0,00491349
93273,02;0,004904692
93289,48;0,004892962
93306,11;0,004887097
93322,97;0,004882698
93339,18;0,004868035
93363,18;0,004882698
93380,5;0,0048739
93396,88;0,004868035
93413,73;0,004870968
93429,47;0,00486217
93446,02;0,004878299
93462,59;0,004887097
93479,69;0,004891496
93495,72;0,004894428
93520,36;0,004891496
93542,88;0,004853372
93559,55;0,004857771
93576,41;0,004865102
93593,28;0,004865102
93609,2;0,004870968
93626,26;0,0048739
93643,05;0,004892962
93659,02;0,004892962
93682,7;0,004897361
93699,7;0,004879766
93715,84;0,004876833
93732,76;0,004888563
93749,23;0,004916423
93765,71;0,004912023
93782,09;0,00492522
93798,66;0,00492522
93815,23;0,00492522
93836,83;0,00492522
93853,91;0,004914956
93869,96;0,004914956
93886,53;0,004914956
93903,1;0,004923754
93920,38;0,00491349
93936,71;0,004912023
93953,27;0,004912023
93969,36;0,004923754
93990,3;0,004923754
94007,3;0,004923754
94023,81;0,004923754
94040,2;0,004923754
94056,57;0,004934018
94073,13;0,004932551
94089,7;0,004932551
94106,28;0,004932551
94122,84;0,004932551
94144,09;0,004932551
94160,66;0,004932551
94177,23;0,004932551
94193,8;0,004932551
94210,39;0,004932551
94226,93;0,004932551
94243,49;0,004922288
94260,36;0,004922288
94276,83;0,004922288
94300,12;0,004922288
94316,78;0,004922288
94333,25;0,004922288
94350,02;0,004922288
94366,38;0,004922288
94382,95;0,004923754
94399,58;0,004923754
94416,09;0,004923754
94432,66;0,004923754
94456,41;0,004923754
94472,98;0,004923754
94490,36;0,004923754
94506,12;0,004917888
94522,68;0,00491349
94539,95;0,004938417
94555,83;0,004926686
94572,39;0,004926686
94588,95;0,004926686
94613,45;0,004928153
94630,02;0,004939883
94646,85;0,00493695
94663,22;0,00493695
94679,72;0,00493695
94696,38;0,004912023
94716,59;0,004928153
94733,16;0,004912023
94750,3;0,004912023
94772,8;0,004923754
94789,98;0,004916423
94805,94;0,004916423
94822,58;0,004916423
94839,07;0,004916423
94856,15;0,004909091
94872,2;0,004926686
94888,84;0,004926686
94905,45;0,00494868
94928,41;0,004953079
94944,98;0,004954545
94961,55;0,004941349
94978,23;0,004951613
94995,07;0,004939883
95011,25;0,004953079
95028,06;0,004953079
95044,79;0,00493695
95060,95;0,00493695
95081,77;0,00493695
95098,33;0,00493695
95114,9;0,004938417
95131,47;0,004931085
95148,03;0,004934018
95164,59;0,004951613
95181,25;0,004941349
95197,73;0,004935484
95214,3;0,004938417
95238,35;0,004876833
95258,86;0,004856305
95271,64;0,004857771
95289,05;0,004846041
95304,77;0,004851906
95321,34;0,004831378
95337,91;0,004843108
95354,5;0,004885631
95371,04;0,004859237
95397,38;0,004860704
95414,02;0,004892962
95430,52;0,004875367
95447,09;0,004888563
95463,66;0,004900293
95480,99;0,004879766
95496,87;0,004857771
95513,37;0,004854839
95530,1;0,004875367
95555,17;0,004887097
95572,26;0,004859237
95588,31;0,004868035
95604,88;0,004868035
95623,05;0,004851906
95638,21;0,004848974
95654,58;0,004854839
95671,14;0,004844575
95687,82;0,004816716
95707,32;0,004816716
95723,89;0,004809384
95740,92;0,004812317
95757,02;0,004812317
95773,59;0,004812317
95790,16;0,004818182
95806,82;0,004832845
95823,29;0,004829912
95839,92;0,004829912
95862,98;0,004837243
95879,55;0,004818182
95896,26;0,004822581
95912,68;0,004821114
95929,25;0,004818182
95945,84;0,004807918
95962,64;0,004800586
95978,95;0,004800586
95996,02;0,004802053
96016,77;0,004800586
96033,34;0,004802053
96049,91;0,00478739
96067,03;0,00477566
96083,03;0,004791789
96099,6;0,004768328
96116,16;0,004780059
96133,13;0,004780059
96149,3;0,004771261
96171,25;0,004762463
96187,82;0,0047522
96204,38;0,0047522
96220,95;0,004755132
96237,52;0,00476393
96254,08;0,004759531
96270,7;0,004749267
96287,67;0,004749267
96303,82;0,004758065
96334,92;0,004736071
96351,49;0,004744868
96368,05;0,004740469
96384,62;0,004740469
96401,48;0,004747801
96417,86;0,0047522
96434,32;0,004747801
96451,03;0,004771261
96467,45;0,004781525
96489,89;0,004772727
96507,08;0,004769795
96523,02;0,004768328
96539,59;0,004765396
96556,16;0,004778592
96572,73;0,004788856
96589,41;0,004778592
96605,86;0,004790323
96622,65;0,004813783
96645,5;0,004815249
96662,07;0,004816716
96678,7;0,004796188
96695,2;0,004794721
96711,77;0,004796188
96728,34;0,004804986
96745,12;0,004815249
96761,47;0,004819648
96778,04;0,004813783
96800,63;0,004809384
96817,21;0,004816716
96833,77;0,004797654
96850,97;0,004788856
96867,22;0,004788856
96883,63;0,004800586
96900,04;0,004796188
96916,6;0,004797654
96933,17;0,004804986
96953,76;0,004828446
96970,41;0,004800586
96986,9;0,004807918
97003,64;0,004809384
97020,02;0,004816716
97036,6;0,004821114
97053,16;0,004821114
97069,73;0,004821114
97087,73;0,004818182
97111,7;0,004806451
97128,28;0,004818182
97144,98;0,004802053
97161,4;0,004803519
97177,96;0,004796188
97194,53;0,004796188
97211,11;0,004793255
97227,66;0,004781525
97244,37;0,00477566
97260,8;0,004781525
97283,58;0,004804986
97300,16;0,004813783
97316,72;0,004815249
97333,29;0,004815249
97349,84;0,004821114
97366,58;0,004797654
97382,98;0,004796188
97400,05;0,004790323
97416,13;0,004800586
97439,14;0,004825513
97455,71;0,00482698
97472,45;0,00482698
97488,84;0,004816716
97505,67;0,004818182
97522,09;0,004800586
97538,55;0,004800586
97555,11;0,004794721
97571,68;0,004806451
97594,18;0,004813783
97611,32;0,004804986
97627,31;0,004802053
97643,88;0,004802053
97660,49;0,004794721
97677,02;0,004794721
97693,85;0,004800586
97710,34;0,004816716
97726,72;0,004844575
97747,31;0,004829912
97763,88;0,004834311
97780,45;0,004834311
97798,74;0,00483871
97815,37;0,004828446
97831,88;0,004818182
97848,46;0,004809384
97865,02;0,004818182
97881,59;0,004840176
97905,55;0,004831378
97922,11;0,004859237
97938,79;0,0048739
97955,24;0,0048739
97971,82;0,004879766
97988,45;0,004894428
98004,95;0,004884164
98021,86;0,004890029
98038,08;0,004895894
98060,95;0,004888563
98077,8;0,004881232
98094,09;0,004859237
98110,68;0,004875367
98127,21;0,0048739
98143,78;0,004868035
98160,34;0,004868035
98176,92;0,004863637
98193,48;0,004879766
98215,37;0,004872434
98232,36;0,004872434
98248,53;0,004872434
98265,08;0,004863637
98282,05;0,004863637
98298,2;0,004863637
98314,77;0,004875367
98331,34;0,004875367
98347,91;0,004875367
98370,02;0,004891496
98386,59;0,004891496
98403,61;0,004891496
98420,22;0,004879766
98436,29;0,004885631
98452,91;0,004885631
98469,77;0,004884164
98486,31;0,004884164
98502,96;0,004882698
98524,26;0,004885631
98541;0,004878299
98557,4;0,004878299
98573,96;0,004878299
98590,59;0,004878299
98607,09;0,004878299
98624,08;0,004882698
98640,45;0,004882698
98657,5;0,00490176
98689,99;0,004884164
98706,56;0,004882698
98723,63;0,0048739
98739,7;0,004853372
98756,27;0,004853372
98772,93;0,004860704
98789,66;0,004856305
98805,97;0,004853372
98822,53;0,004860704
98846,51;0,004851906
98863,08;0,004859237
98879,91;0,004853372
98896,22;0,004851906
98912,77;0,004843108
98929,82;0,004843108
98945,91;0,004843108
98962,66;0,004843108
98979,34;0,00485044
99002,18;0,004840176
99018,75;0,004854839
99035,32;0,004837243
99051,89;0,004835777
99068,5;0,004802053
99085,52;0,004819648
99101,59;0,00479912
99118,6;0,00479912
99134,72;0,00479912
99157,01;0,004816716
99173,58;0,004828446
99190,14;0,004834311
99206,71;0,004807918
99223,88;0,004816716
99240,19;0,00482698
99256,41;0,00479912
99272,97;0,004780059
99289,78;0,004777126
99310,32;0,004768329
99326,89;0,004766862
99343,45;0,004766862
99360,02;0,004790323
99377,2;0,00478739
99393,2;0,004794721
99409,77;0,004780059
99426,28;0,004781525
99442,85;0,004785924
99465,47;0,004782991
99482,04;0,004771261
99498,82;0,004765396
99515,16;0,004765396
99531,8;0,004765396
99548,3;0,004771261
99564,88;0,004771261
99581,44;0,004771261
99598,09;0,004771261
99619,61;0,004771261
99636,66;0,004785924
99652,74;0,004785924
99670,14;0,004784457
99685,88;0,004784457
99702,91;0,00477566
99719,1;0,004785924
99735,57;0,004782991
99752,26;0,004769795
99775,02;0,004769795
99791,59;0,004769795
99808,15;0,00478739
99824,71;0,004794721
99841,31;0,004781525
99857,91;0,004784457
99874,42;0,0047522
99890,98;0,004750733
99907,55;0,004750733
99929,12;0,004750733
99945,68;0,004750733
99962,25;0,004731671
99979,04;0,004730206
99995,78;0,004728739
100011,9;0,004728739
100028,5;0,004740469
100045,5;0,004743402
100061,6;0,004705279
100094;0,004678886
100110,8;0,00467742
100127,1;0,004690616
100143,7;0,004683285
100160,8;0,004714076
100177;0,004714076
100193,4;0,004705279
100209,9;0,004703812
100226,5;0,004714076
100248,8;0,00472434
100266;0,004719941
100282,6;0,004706745
100298,5;0,004705279
100315;0,004703812
100331,6;0,004703812
100348,1;0,004721408
100364,7;0,00470088
100381,3;0,00468915
100403,7;0,004690616
100420,3;0,00467742
100437;0,004668622
100453,9;0,004671554
100470,3;0,004678886
100486,5;0,004684751
100503,1;0,004690616
100519,7;0,004687683
100536,2;0,004680352
100557,7;0,004680352
100574,3;0,004687683
100590,9;0,004692082
100607,4;0,004692082
100624;0,004709677
100640,5;0,004693549
100657,1;0,004693549
100673,7;0,004693549
100690,2;0,004705279
100721,4;0,004717009
100738,3;0,004706745
100754,9;0,004728739
100771,1;0,004725806
100787,9;0,004722874
100804,3;0,004722874
100820,9;0,004733138
100837,6;0,004731671
100854;0,004731671
100875,7;0,004750733
100892,4;0,004750733
100909,1;0,004737537
100925,9;0,004734604
100942;0,004725806
100958,6;0,00472434
100975,1;0,00472434
100991,7;0,004743402
101008,3;0,004733138
101030,1;0,004725806
101047,1;0,004739003
101063,5;0,004725806
101079,8;0,004741936
101096,7;0,004741936
101112,9;0,004771261
101129,8;0,004756598
101146,5;0,00476393
101162,7;0,00476393
101185,2;0,004771261
101202,5;0,004769795
101218,5;0,004766862
101234,9;0,004782991
101251,5;0,004790323
101268,1;0,004796188
101284,6;0,004804986
101301,2;0,004813783
101318,1;0,004807918
101339,1;0,004816716
101355,7;0,004819648
101372,3;0,004822581
101388,8;0,004819648
101408,9;0,00483871
101422;0,004831378
101439;0,00483871
101455,1;0,004851906
101471,7;0,00486217
101493,8;0,00486217
101510,4;0,00486217
101526,9;0,004876833
101543,7;0,004885631
101560,1;0,004872434
101576,6;0,0048739
101593,5;0,004891496
101609,8;0,004890029
101626,7;0,004891496
101650,6;0,0048739
101667,2;0,004878299
101683,9;0,004891496
101700,8;0,004891496
101716,9;0,004898827
101733,5;0,004914956
101750,1;0,004917888
101768,6;0,004923754
102101,9;0,004972141
102119,3;0,004969209
102135,1;0,004972141
102151,6;0,004951613
102168,6;0,004985337
102185;0,004985337
102201,3;0,004982405
102217,9;0,004947214
102234,5;0,004938417
102251,2;0,004931085
102267,6;0,004929619
102284,2;0,004910557
102300,8;0,004906158
102318,2;0,004910557
102333,9;0,004909091
102350,4;0,004903226
102367,5;0,004903226
102383,6;0,004885631
102400,2;0,004878299
102417,5;0,0048739
102433,3;0,004888563
102449,9;0,004851906
102466,4;0,004844575
102483;0,004829912
102499,5;0,004847507
102516,4;0,004835777
102532,7;0,004837243
102549,3;0,004841642
102565,9;0,004841642
102582,4;0,004829912
102599,3;0,004831378
102615,5;0,004841642
102632,1;0,004837243
102648,6;0,004846041
102665,2;0,004844575
102681,8;0,004847507
102698,4;0,004815249
102715;0,004815249
102731,5;0,004832845
102748,7;0,004832845
102764,6;0,004851906
102781,2;0,004824047
102797,8;0,004835777
102814,8;0,004857771
102830,9;0,004857771
102847,5;0,00485044
102864,6;0,004865103
102880,6;0,004872434
102897,1;0,004854839
102913,8;0,004854839
102930,8;0,004863637
102947,8;0,004875367
102963,5;0,004907625
102980;0,004898827
102996,7;0,004900293
103013,6;0,004900293
103029,8;0,004888563
103046,4;0,004879766
103062,8;0,004879766
103079,4;0,004907625
103096,2;0,004935484
103112,8;0,004929619
103129,3;0,004939883
103145,7;0,004939883
103162,2;0,004963343
103178,8;0,00493695
103195,4;0,004960411
103211,9;0,004961877
103228,9;0,004961877
103245,3;0,004947214
103261,6;0,004950147
103278,7;0,004934018
103294,8;0,004934018
103311,9;0,004935484
103328,5;0,004945748
103344,5;0,004929619
103361;0,004938417
103377,6;0,004934018
103394,4;0,004916423
103410,7;0,004932551
103427,3;0,004932551
103444;0,004926686
103460,4;0,004926686
103477,1;0,004910557
103493,6;0,004912023
103510,1;0,004931085
103527,5;0,004931085
103543,3;0,004920821
103559,8;0,004926686
103576,4;0,00491349
103592,9;0,00491349
103609,9;0,00491349
103626,1;0,004922288
103642,7;0,004922288
103659,4;0,004922288
103675,8;0,004942815
103692,4;0,004953079
103708,9;0,004920821
103725,5;0,004920821
103742;0,004923754
103758,8;0,004931085
103775,3;0,004912023
103791,8;0,004914956
103808,3;0,004914956
103828,3;0,004881232
103841,5;0,004892962
103858;0,004884164
103875;0,004887097
103891,1;0,0048739
103907,7;0,004884164
103924,9;0,004907625
103940,9;0,004907625
103957,5;0,004895894
103974;0,004914956
103991,2;0,004926686
104007,2;0,004907625
104024;0,004914956
104040,5;0,004914956
104056,8;0,00494868
104073,4;0,004926686
104090;0,004926686
104106,5;0,004956012
104123,1;0,00493695
104139,6;0,004935484
104156,2;0,004928153
104172,8;0,004904692
104189,4;0,004904692
104206,3;0,004929619
104222,5;0,004929619
104239,1;0,004953079
104255,6;0,004957478
104272,3;0,004961877
104288,8;0,004961877
104305,6;0,004978006
104322,6;0,004983871
104338,4;0,004960411
104355,4;0,004980939
104371,6;0,004989736
104388,4;0,004995601
104404,7;0,004964809
104421,3;0,004957478
104437,9;0,004989736
104454,8;0,005024927
104471;0,005014663
104487,6;0,005027859
104504,1;0,005049854
104520,8;0,005067449
104537,3;0,005068915
104554,1;0,005070381
104570,4;0,005070381
104587;0,005064516
104603,6;0,00506305
104620,5;0,005070381
104636,6;0,005060117
104653,2;0,005060117
104669,8;0,005067449
104686,4;0,005071848
104702,9;0,005068915
104719,5;0,005070381
104739,4;0,00506305
104752,6;0,005051319
104769,6;0,005051319
104785,8;0,005064516
104802,3;0,005054252
104818,9;0,005046921
104835,5;0,005045454
104852;0,005027859
104868,8;0,005027859
104885,1;0,005027859
104901,7;0,005030792
104918,3;0,005007331
104935;0,005010264
104951,4;0,005010264
104968;0,005010264
104984,5;0,004975074
105001,1;0,004966276
105017,8;0,004975074
105034,8;0,004961877
105050,8;0,004964809
105067,4;0,004932551
105084;0,004944282
105101;0,004944282
105117,1;0,004935484
105133,6;0,004935484
105150,8;0,004926686
105167,6;0,004926686
105183,4;0,004932551
105199,9;0,004910557
105216,5;0,00492522
105233;0,004917888
105249,9;0,004926686
105266,2;0,004917888
105283,6;0,00491349
105299,3;0,004928153
105315,9;0,004944282
105332,5;0,004926686
105349;0,004926686
105365,6;0,004935484
105382,1;0,004942815
105399,2;0,004934018
105415,3;0,004956012
105432;0,004957478
105448,4;0,004954545
105465;0,004979472
105481,6;0,004957478
105498,1;0,004938417
105515,5;0,00493695
105531,3;0,004939883
105547,8;0,004951613
105564,4;0,004951613
105581,3;0,004951613
105597,5;0,004950147
105614,1;0,004961877
105630,7;0,004969208
105647,2;0,004956012
105663,8;0,004957478
105680,4;0,004964809
105696,9;0,004961877
105713,5;0,004973607
105730,3;0,004972141
105746,6;0,004972141
105763,2;0,004972141
105779,8;0,004941349
105796,3;0,00494868
105813,4;0,004966276
105829,5;0,004966276
105846;0,004942815
105862,6;0,004956012
105879,2;0,004967742
105896;0,004967742
105912,5;0,004967742
105929,2;0,004961877
105945,4;0,004972141
105962,6;0,004982405
105978,6;0,004947214
105995,1;0,00493695
106011,7;0,004956012
106028,3;0,004944282
106045,6;0,004951613
106061,4;0,004926686
106078;0,004926686
106095,2;0,004926686
106111,3;0,004906158
106127,7;0,004917888
106144,3;0,004916423
106160,9;0,004916423
106178,2;0,004932551
106193,9;0,004906158
106210,5;0,004906158
106227,1;0,004906158
106243,7;0,004914956
106260,2;0,00491349
106277,3;0,004894428
106293,6;0,004898827
106309,9;0,004907625
106326,5;0,00491349
106343;0,004909091
106360,2;0,004909091
106376,4;0,004894428
106392,7;0,004894428
106409,3;0,004891496
106425,9;0,004894428
106442,4;0,004870968
106459,4;0,004854839
106475,5;0,004857771
106492,1;0,004840176
106508,7;0,004822581
106525,3;0,004821114
106541,9;0,004812317
106558,4;0,004825513
106575,1;0,004804986
106591,5;0,004807918
106608,2;0,004803519
106625;0,004796188
106641,7;0,004810851
106658,3;0,004812317
106674,4;0,004818182
106690,9;0,004812317
106708;0,004815249
106724,1;0,004810851
106740,6;0,004824047
106757,9;0,004812317
106773,8;0,004802053
106790,3;0,004809384
106806,9;0,004806451
106823,6;0,004807918
106840,3;0,004822581
106856,6;0,004821114
106873,2;0,004821114
106890,2;0,004829912
106906,3;0,004829912
106922,9;0,004844575
106939,4;0,004831378
106956,1;0,004835777
106973,1;0,00485044
106989,5;0,00485044
107005,7;0,004856305
107022,3;0,00483871
107038,8;0,004853372
107055,8;0,004841642
107072;0,004835777
107088,5;0,004832845
107105,1;0,004834311
107121,9;0,004832845
107138,9;0,004816716
107155,1;0,00482698
107171,4;0,004843108
107187,9;0,004843108
107204,5;0,00485044
107221,1;0,00486217
107237,6;0,004881232
107254,3;0,004881232
107270,8;0,004894428
107287,3;0,004892962
107303,9;0,004885631
107320,5;0,004885631
107337;0,004891496
107353,9;0,004868035
107371;0,004897361
107387,1;0,004895894
107403,3;0,004892962
107419,9;0,004909091
107436,4;0,004872434
107453,2;0,004860704
107469,7;0,004872434
107486,1;0,004872434
107502,7;0,004868035
107519,6;0,004872434
107535,9;0,004868035
107552,7;0,004847507
107568,9;0,00485044
107585,5;0,004847507
107602,1;0,004844575
107619,4;0,004832845
107635,4;0,004810851
107652;0,004822581
107668,8;0,004812317
107684,9;0,004813783
107701,5;0,004821114
107718,1;0,004807918
107734,9;0,004812317
107751,2;0,004815249
107767,8;0,004831378
107784,3;0,00482698
107800,9;0,00483871
107817,7;0,004843108
107834,2;0,004843108
107850,6;0,004844575
107867,2;0,004844575
107883,7;0,004832845
107900,7;0,00483871
107916,9;0,004816716
107933,4;0,004812317
107950,3;0,004829912
107966,6;0,004869502
107983,4;0,004869502
107999,7;0,004863637
108016,4;0,004863637
108032,9;0,004879766
108049,4;0,004881232
108065,9;0,004872434
108082,5;0,004876833
108099,5;0,004876833
108115,7;0,004891496
108132,2;0,004891496
108148,8;0,004878299
108165,8;0,004876833
108182,3;0,004872434
108198,5;0,004857771
108215,1;0,004884164
108231,9;0,004878299
108248,2;0,004890029
108264,9;0,004881232
108281,3;0,004884164
108298,2;0,004876833
108315,1;0,004875367
108331;0,00486217
108347,6;0,004865103
108364,6;0,004869502
108380,7;0,004876833
108397,3;0,004878299
108413,9;0,0048739
108430,6;0,004884164
108447;0,004878299
108464,2;0,004885631
108480,3;0,004890029
108496,7;0,004897361
108513,3;0,004890029
108529,8;0,004887097
108546,4;0,004870968
108563,2;0,004851906
108579,5;0,004878299
108596,4;0,004879766
108612,7;0,004879766
108629,6;0,004887097
108646,5;0,004875367
108662,4;0,004870968
108679;0,004872434
108695,5;0,004885631
108712,1;0,004882698
108728,7;0,0048739
108745,5;0,004879766
108762,1;0,004895894
108778,3;0,004895894
108794,9;0,004903226
108812,3;0,004892962
108828;0,004912023
108844,6;0,00490176
108861,2;0,00490176
108878;0,004909091
108894,3;0,004897361
108911;0,004894428
108927,5;0,004894428
108944;0,004897361
108960,5;0,004897361
108977,1;0,004887097
108993,7;0,004875367
109010,3;0,004872434
109026,9;0,004882698
109043,4;0,004876833
109060;0,004872434
109076,5;0,004885631
109093,7;0,004903226
109109,6;0,004907625
109126,2;0,004903226
109142,9;0,004903226
109159,4;0,004884164
109175,9;0,004875367
109193;0,004863637
109209,3;0,004872434
109226,1;0,0048739
109242,2;0,004847507
109258,8;0,004847507
109275,3;0,004829912
109292,6;0,004824047
109308,5;0,004828446
109325;0,004831378
109341,6;0,004831378
109358,2;0,004853372
109375,1;0,004841642
109391,3;0,004829912
109407,9;0,004829912
109424,7;0,004831378
109441;0,004831378
109457,5;0,004819648
109474,1;0,004834311
109490,8;0,004829912
109507,4;0,004829912
109523,8;0,004837243
109540,4;0,004843108
109557;0,004843108
109573,5;0,004843108
109590,8;0,004843108
109606,6;0,004857771
109623,2;0,004869502
109639,8;0,004851906
109656,4;0,004857771
109672,9;0,004860704
109689,5;0,004863637
109706;0,004863637
109722,6;0,004857771
109739,3;0,004865102
109755,8;0,004844575
109773,1;0,004847507
109788,9;0,004847507
109805,5;0,004856305
109822,2;0,004840176
109838,6;0,004840176
109855,3;0,004840176
109871,7;0,004840176
109888,3;0,004844575
109904,9;0,004843108
109921,4;0,004854839
109938,9;0,004854839
109954,6;0,00483871
109971,1;0,004828446
109988,1;0,004804986
110004,3;0,004815249
110020,8;0,004815249
110038,1;0,004784457
110054,1;0,004784457
110071,2;0,004788856
110087,1;0,004802053
110103,9;0,004803519
110120,2;0,004794721
110137;0,004797654
110153,4;0,004806451
110169,9;0,004813783
110186,6;0,004818182
110203;0,004810851
110219,6;0,004818182
110236,2;0,004813783
110253;0,004807918
110269,6;0,004790323
110286,4;0,004781525
110302,6;0,004807918
110319,1;0,004807918
110335,6;0,004809384
110352,4;0,004809384
110368,7;0,004815249
110385,3;0,004819648
110401,9;0,004824047
110418,4;0,004824047
110435;0,004824047
110451,6;0,004822581
110468,1;0,004803519
110485,4;0,00479912
110501,6;0,00479912
110517,9;0,004796188
110534,4;0,004793255
110551,1;0,004784457
110567,5;0,00479912
110584,2;0,004791789
110600,6;0,004788856
110617,3;0,004813783
110634,1;0,004809384
110650,5;0,004802053
110666,9;0,004802053
110683,9;0,004807918
110700;0,004807918
110716,6;0,004807918
110733,3;0,004824047
110749,9;0,004818182
110766,3;0,004794721
110782,9;0,004788856
110799,5;0,004771261
110816;0,004762463
110832,9;0,004750733
110849,6;0,004747801
110865,7;0,004759531
110882,3;0,004744868
110899,2;0,004750733
110915,8;0,004759531
110932;0,004760997
110948,6;0,004753666
110965,9;0,004755132
110982,6;0,0047522
110998,3;0,004769795
111015,1;0,004768328
111031,4;0,004778592
111048,3;0,004796188
111064,8;0,004784457
111081,5;0,004784457
111097,7;0,004780059
111114,9;0,004766862
111130,8;0,004749267
111147,5;0,004749267
111164,3;0,004755132
111180,5;0,004740469
111197,3;0,004760997
111213,7;0,004753666
111230,2;0,004753666
111247,1;0,004740469
111263,3;0,004740469
111279,9;0,004727273
111296,5;0,004727273
111313;0,004727273
111329,6;0,004727273
111346,2;0,004728739
111362,8;0,004728739
111379,7;0,004731671
111395,9;0,004733138
111412,8;0,004739003
111429;0,004755132
111445,5;0,004778592
111462,1;0,004778592
111478,7;0,00477566
111495,9;0,004785924
111511,8;0,004778592
111528,4;0,004790323
111545;0,00476393
111561,9;0,004753666
111578,1;0,004758065
111594,6;0,004734604
111611,2;0,004765396
111628,2;0,004760997
111644,4;0,004759531
111660,9;0,004758065
111677,5;0,004774194
111694,5;0,004778592
111710,6;0,004772727
111727,2;0,00476393
111743,8;0,004772727
111760,3;0,004784457
111776,9;0,004781525
111793,5;0,004771261
111810;0,004765396
111826,6;0,004765396
111843,4;0,004762463
111860,1;0,00477566
111876,5;0,00477566
111892,9;0,004768328
111909,4;0,004768328
111926,2;0,004765396
111942,8;0,004765396
111959,4;0,004768328
111975,9;0,004768328
111992,3;0,004769795
112009,1;0,004772727
112025,6;0,004774194
112041,9;0,004772727
112058,7;0,004739003
112075,1;0,004765396
112091,7;0,0047522
112108,3;0,004756598
112124,8;0,004756598
112141,9;0,004762463
112157,9;0,004753666
112174,5;0,004753666
112191,1;0,0047522
112208,4;0,004753666
112224,3;0,004739003
112240,8;0,004728739
112257,7;0,004734604
112273,9;0,004739003
112290,5;0,004731671
112307;0,004734604
112323,6;0,004733138
112340,1;0,004727273
112356,7;0,004715543
112373,3;0,004733138
112390,4;0,004739003
112406,4;0,004728739
112423,4;0,00472434
112439,6;0,004725806
112456,1;0,004725806
112472,8;0,004709677
112489,8;0,004715543
112506;0,00472434
112522,8;0,00472434
112538,9;0,00472434
112555,8;0,004734604
112572,5;0,004727273
112588,7;0,004740469
112605,9;0,004740469
112622,3;0,004719941
112638,4;0,004731671
112655,4;0,004717009
112671,5;0,004686217
112688,2;0,004695015
112704,8;0,004703812
112721,4;0,004708211
112737,8;0,004709677
112754,3;0,004706745
112770,9;0,004719941
112787,5;0,004705279
112804;0,004695015
112820,6;0,004715543
112837,1;0,004711144
112854;0,004711144
112870,3;0,004717009
112887,2;0,004708211
112903,9;0,004708211
112920;0,004709677
112936,7;0,004709677
112953,2;0,004736071
112969,9;0,004746334
112986,3;0,004731671
113002,8;0,004731671
113019,4;0,004721408
113036;0,004715543
113052,9;0,004715543
113069,1;0,004722874
113086,3;0,004693549
113102,5;0,004711144
113119,1;0,004711144
113135,4;0,004711144
113151,9;0,004731671
113168,5;0,004734604
113185,1;0,004740469
113201,7;0,00472434
113218,2;0,004733138
113235;0,004727273
113251,9;0,004727273
113267,9;0,004727273
113284,6;0,004736071
113301,4;0,004740469
113318,1;0,004734604
113334,5;0,004741936
113350,7;0,004744868
113367,3;0,004725806
113384,1;0,004719941
113400,5;0,004721408
113417,1;0,00471261
113433,5;0,00471261
113450,6;0,004706745
113466,7;0,004722874
113483,3;0,004696481
113499,8;0,004686217
113516,4;0,004697947
113533,1;0,004697947
113550;0,004709677
113566,6;0,004725806
113582,6;0,004725806
113599,2;0,004733138
113615,8;0,004733138
113632,6;0,004731671
113648,9;0,004737537
113665,5;0,004737537
113682,4;0,004744868
113698,6;0,004744868
113715,2;0,0047522
113731,8;0,0047522
113748,3;0,004736071
113764,9;0,004747801
113781,5;0,004756598
113798;0,004758065
113814,6;0,004758065
113831,2;0,004758065
113847,7;0,004768328
113864,7;0,004768328
113880,9;0,004768328
113897,4;0,004768328
113914;0,004768328
113930,6;0,004768328
113947,1;0,004768328
113963,7;0,004777126
113980,5;0,004777126
113997,1;0,004777126
114013,6;0,004777126
114030;0,004774194
114046,5;0,004782991
114063,1;0,004782991
114080,5;0,004782991
114096,2;0,004759531
114112,8;0,004765396
114130,2;0,004771261
114146;0,004785924
114162,9;0,004806451
114179,1;0,004818182
114195,6;0,004806451
114212,4;0,004790323
114228,9;0,004802053
114245,3;0,004803519
114261,9;0,004806451
114278,6;0,004809384
114295,4;0,004802053
114311,6;0,004806451
114328,3;0,004816716
114345,1;0,004807918
114361,3;0,004807918
114377,9;0,004782991
114394,8;0,004810851
114411;0,004810851
114427,6;0,004813783
114444,1;0,004828446
114460,7;0,00483871
114477,3;0,00485044
114494,3;0,004837243
114510,4;0,004856305
114527,4;0,004856305
114543,5;0,004857771
114560,1;0,004857771
114576,7;0,004870968
114593,2;0,004892962
114610;0,004891496
114626,4;0,004897361
114643,5;0,004882698
114659,5;0,004904692
114676,7;0,004907625
114692,6;0,00491349
114709,2;0,004910557
114725,8;0,004919355
114742,8;0,004920821
114759,4;0,004917888
114775,5;0,004900293
114792,2;0,004920821
114809,3;0,004914956
114825,1;0,004916423
114841,8;0,004926686
114858,3;0,004951613
114874,9;0,004942815
114891,4;0,004938417
114908;0,00494868
114924,6;0,004951613
114941,7;0,004939883
114957,7;0,004928153
114974,7;0,004938417
114991,4;0,004934018
115008,1;0,004929619
115024,1;0,004916423
115040,8;0,004935484
115057,6;0,004920821
115073,7;0,004932551
115090,2;0,004947214
115106,8;0,004973607
115123,5;0,004956012
115140,1;0,004960411
115156,8;0,004960411
115173,2;0,004967742
115189,9;0,004975074
115206,8;0,004975074
115222,8;0,004973607
115239,3;0,004991203
115255,9;0,004991203
115273;0,005010264
115289;0,005014663
115305,6;0,005014663
115322,1;0,005020528
115338,7;0,005008798
115355,5;0,005008798
115371,9;0,005020528
115388,5;0,005013197
115405;0,005013197
115421,5;0,005001466
115438,1;0,005001466
115454,8;0,005005865
115471,4;0,005010264
115488,5;0,005005865
115504,4;0,004989736
115521;0,005013197
115537,6;0,004992669
115554,1;0,004998534
115570,8;0,005007331
115587,9;0,005007331
115603,8;0,004995601
115620,4;0,004956012
115636,9;0,004966276
115653,7;0,00497654
115670,1;0,004973607
115687;0,004978006
115703,2;0,004950147
115719,8;0,004961877
115736,9;0,004978006
115753,5;0,004978006
115769,6;0,004985337
115786,5;0,005008798
115802,6;0,005008798
115819,2;0,004995601
115835,7;0,004995601
115853,2;0,005004399
115869,6;0,005004399
115885,8;0,005004399
115902;0,005014663
115918,5;0,00502346
115935,3;0,00502346
115951,7;0,005039589
115968,3;0,005021994
115984,8;0,005024927
116001,4;0,005001466
116018;0,005007331
116034,5;0,005007331
116051,2;0,004998534
116067,6;0,005008798
116084,7;0,005010264
116100,8;0,005010264
116117,4;0,005002933
116133,9;0,005010264
116150,9;0,005010264
116167,1;0,005005865
116183,6;0,004991203
116200,2;0,005013197
116216,8;0,005007331
116233,3;0,005004399
116249,9;0,005004399
116266,5;0,005004399
116283;0,005004399
116300;0,005010264
116316,2;0,005010264
116332,7;0,005007331
116349,6;0,005005865
116366;0,005017595
116382,4;0,005030792
116399;0,005030792
116415,6;0,005030792
116432,5;0,005027859
116448,7;0,005027859
116465,4;0,005027859
116482;0,005027859
116498,4;0,005017595
116515,4;0,005024927
116531,5;0,005032258
116548,1;0,005049854
116564,7;0,005048387
116581,2;0,005035191
116597,8;0,005029325
116614,4;0,00502346
116631;0,00505132
116648,1;0,005052786
116664,5;0,005052786
116681,1;0,005035191
116697,4;0,005042522
116714;0,005041056
116730,7;0,005027859
116755,4;0,005036657
116763,5;0,005042522
116780;0,005032258
116796,6;0,005030792
116813,9;0,005027859
116829,7;0,005017595
116846,3;0,005017595
116862,9;0,005013197
116879,4;0,005005865
116896,5;0,005017595
116912,6;0,005017595
116929,1;0,005001466
116945,7;0,00501173
116962,3;0,005010264
116979,2;0,005013197
116995,4;0,005013197
117012,8;0,005016129
117028,5;0,005017595
117045,1;0,004992669
117061,7;0,00502346
117078,2;0,00502346
117095,7;0,005032258
117111,4;0,005032258
117127,9;0,005016129
117145,2;0,005001466
117161;0,005007331
117177,6;0,005020528
117194,3;0,005030792
117210,8;0,005019062
117227,3;0,005021994
117243,9;0,005026393
117260,9;0,00502346
117277,2;0,005010264
117293,6;0,005029325
117310,1;0,005029325
117327;0,005020528
117343,3;0,005020528
117359,9;0,005017595
117376,4;0,005008798
117393,1;0,005021994
117409,6;0,005020528
117426,1;0,005020528
117442,7;0,005026393
117460;0,005036657
117475,8;0,005020528
117492,9;0,005045454
117509;0,005035191
117525,9;0,005039589
117542,1;0,005049854
117558,8;0,005033724
117575,2;0,005021994
117591,8;0,005026393
117608,4;0,005032258
117624,9;0,005032258
117641,5;0,005032258
117658;0,005014663
117674,8;0,005020528
117691,2;0,005032258
117707,8;0,005020528
117724,3;0,005020528
117741,7;0,005024927
117757,5;0,005024927
117774;0,005002933
117791,2;0,004973607
117807,9;0,004973607
117823,7;0,004973607
117840,3;0,004967742
117857,4;0,004966276
117873,4;0,004972141
117890;0,004953079
117906,6;0,004953079
117923,4;0,004953079
117939,8;0,004951613
117956,6;0,004951613
117972,8;0,004951613
117989,4;0,004970674
118006;0,004960411
118022,5;0,004945748
118039,3;0,004979472
118055,6;0,004979472
118072,2;0,004964809
118089;0,004957478
118105,3;0,004967742
118121,9;0,004978006
118138,7;0,004961877
118155,4;0,004979472
118171,6;0,00497654
118189,2;0,00497654
118205,4;0,004951613
118222;0,004957478
118237,9;0,004967742
118254,9;0,004966276
118271,2;0,004969209
118287,6;0,004945748
118304,4;0,004947214
118320,7;0,004941349
118337,3;0,004941349
118353,9;0,004939883
118370,4;0,004939883
118387;0,004961877
118403,5;0,004961877
118420,3;0,00497654
118436,7;0,004941349
118453,3;0,004944282
118470,2;0,004945748
118486,4;0,004912023
118503;0,004912023
118519,7;0,004912023
118536,6;0,004912023
118552,7;0,004922288
118569,2;0,004895894
118585,8;0,004923754
118602,9;0,004923754
118618,9;0,004922288
118636;0,004890029
118652,1;0,004904692
118669;0,004904692
118685,2;0,004900293
118701,8;0,004894428
118718,3;0,004907625
118735,6;0,004900293
118751,6;0,004900293
118768,1;0,004895894
118784,6;0,004892962
118801,1;0,00490176
118817,7;0,004910557
118834,3;0,004907625
118850,9;0,004891496
118867,4;0,004900293
118884;0,004898827
118900,6;0,004891496
118917,3;0,004872434
118933,7;0,004882698
118950,3;0,004870968
118967,4;0,004865102
118983,4;0,004865102
119000;0,004865102
119016,8;0,004857771
119033,1;0,00485044
119049,7;0,00485044
119066,2;0,0048739
119082,9;0,004846041
119099,4;0,004825513
119116,2;0,004819648
119132,7;0,004825513
119149,3;0,004806451
119166;0,004804986
119182,2;0,00479912
119199,3;0,004797654
119215,3;0,004781525
119231,9;0,004778592
119248,6;0,00477566
119265,2;0,004784457
119281,7;0,004771261
119298,2;0,004771261
119314,7;0,004778592
119331,3;0,004774194
119347,9;0,004780059
119364,4;0,004791789
119381,7;0,004774194
119397,6;0,004774194
119414,1;0,00478739
119430,7;0,004796188
119447,3;0,00477566
119463,9;0,004777126
119480,6;0,004777126
119497,1;0,004777126
119513,9;0,00477566
119530,1;0,00476393
119546,7;0,004760997
119563,2;0,004759531
119580,3;0,004760997
119596,4;0,004766862
119612,9;0,004765396
119629,5;0,004782991
119646,1;0,004782991
119662,6;0,004772727
119679,9;0,004772727
119695,9;0,00477566
119712,4;0,004784457
119729;0,00477566
119745,5;0,004793255
119762,2;0,00478739
119778,7;0,004784457
119795,1;0,00478739
119811,7;0,004781525
119828,3;0,004781525
119844,9;0,004797654
119861,4;0,004809384
119878,2;0,004809384
119894,6;0,004790323
119911,1;0,004821114
119927,7;0,004800586
119944,3;0,004802053
119960,8;0,004802053
119977,4;0,004797654
119994;0,004762463
120010,5;0,004750733
120027,1;0,00476393
120043,7;0,004760997
120060,4;0,004790323
120077,3;0,004780059
120093,7;0,004785924
120110,1;0,004780059
120126,7;0,004769795
120143,1;0,004793255
120160,3;0,004797654
120176,5;0,004788856
120192,8;0,004797654
120209,5;0,004802053
120225,9;0,004802053
120243,4;0,004813783
120259;0,004806451
120276,2;0,004815249
120292,2;0,004816716
120308,7;0,004816716
120325,4;0,004807918
120341,9;0,004821114
120358,4;0,004821114
120375,2;0,004821114
120391,6;0,004829912
120408,4;0,004843108
120424,7;0,004835777
120442;0,00483871
120457,8;0,00483871
120474,5;0,004832845
120491;0,00483871
120507,5;0,004835777
120524,1;0,004854839
120540,7;0,004859237
120558,2;0,004856305
120573,8;0,004856305
120590,3;0,004848974
120607;0,004847507
120624;0,004860704
120640,1;0,004870968
120656,7;0,004869502
120673,2;0,004876833
120689,8;0,004884164
120706,5;0,004853372
120723,4;0,004840176
120739,6;0,004843108
120756;0,004843108
120772,6;0,004831378
120789,2;0,004828446
120805,7;0,004835777
120822,3;0,004831378
120839,5;0,004831378
120855,4;0,004815249
120872,4;0,004860704
120888,5;0,004881232
120905,2;0,004870968
120922,2;0,0048739
120938,3;0,004876833
120955,2;0,004868035
120971,4;0,004868035
120988;0,004878299
121004,5;0,004884164
121021,1;0,004884164
121037,6;0,004881232
121054,2;0,004917888
121070,8;0,004910557
121087,7;0,004910557
121103,9;0,004910557
121120,5;0,004916423
121137,1;0,004923754
121153,9;0,004923754
121170,2;0,004914956
121187,1;0,004912023
121203,3;0,004906158
121220,3;0,004907625
121236,5;0,004909091
121253;0,004895894
121269,8;0,004912023
121286,3;0,004907625
121303;0,004900293
121319,5;0,004900293
121335,9;0,004897361
121352,4;0,004875367
121372,8;0,004872434
121385,6;0,004897361
121402,1;0,004895894
121419;0,004900293
121435,3;0,004906158
121451,8;0,00490176
121468,4;0,004895894
121484,9;0,004895894
121501,9;0,004907625
121518,8;0,00490176
121534,7;0,004914956
121551,7;0,004928153
121568;0,004928153
121584,4;0,004929619
121600,9;0,004929619
121617,7;0,004939883
121634;0,004935484
121651,4;0,004939883
121667,5;0,004907625
121683,8;0,004914956
121700,3;0,004919355
121717;0,00492522
121733,5;0,004909091
121750;0,004909091
121766,8;0,004910557
121783,2;0,004907625
121799,7;0,004922288
121816,3;0,004931085
121833,4;0,004906158
121850,1;0,004892962
121866,7;0,004885631
121882,6;0,004897361
121899,1;0,004884164
121915,7;0,004885631
121932,3;0,004881232
121948,9;0,004898827
121965,4;0,00491349
121981,9;0,004904692
121998,5;0,004904692
122015,7;0,004929619
122031,7;0,004914956
122049;0,004939883
122064,8;0,004923754
122081,4;0,004922288
122097,9;0,004900293
122114,5;0,004906158
122131;0,004906158
122147,6;0,004910557
122164,2;0,00490176
122181,2;0,004907625
122197,3;0,004907625
122213,9;0,004903226
122230,7;0,004900293
122247;0,004900293
122263,8;0,004903226
122280,1;0,004904692
122296,7;0,004872434
122313,3;0,004892962
122329,9;0,004868035
122346,4;0,004868035
122363;0,004865103
122379,5;0,004856305
122396,1;0,004857771
122412,7;0,004856305
122429,7;0,004860704
122446,5;0,004863637
122462,4;0,004865103
122479;0,004863637
122495,5;0,004856305
122512,1;0,00485044
122528,9;0,004840176
122545,2;0,004835777
122562,5;0,004831378
122578,6;0,004822581
122594,9;0,004835777
122611,5;0,004832845
122628,1;0,00483871
122644,6;0,004856305
122661,2;0,004853372
122678;0,004847507
122694,3;0,004875367
122711,3;0,004869502
122727,7;0,004878299
122744;0,004868035
122760,6;0,004868035
122777,3;0,004881232
122794,1;0,004892962
122810,3;0,004895894
122826,9;0,004894428
122843,4;0,004881232
122860,1;0,004879766
122876,5;0,004887097
122893,3;0,004887097
122909,7;0,004868035
122926,7;0,0048739
122942,8;0,004887097
122959,8;0,004881232
122976;0,004897361
122993,1;0,004892962
123009,1;0,00491349
123025,8;0,004916423
123042,2;0,004914956
123058,8;0,004887097
123075,4;0,004917888
123091,9;0,004914956
123108,5;0,004922288
123125,1;0,00491349
123142,1;0,00492522
123158,2;0,004917888
123175,5;0,004926686
123191,7;0,004926686
123208,3;0,004923754
123224,6;0,00492522
123241;0,004932551
123257,6;0,004970674
123274,2;0,004982405
123290,7;0,004998534
123307,3;0,005
123324;0,005026393
123341,1;0,005021994
123357,3;0,005021994
123373,5;0,005035191
123390,7;0,00506305
123406,7;0,005061584
123423,4;0,005065983
123440,2;0,005065983
123456,5;0,005065983
123473;0,00509824
123490,1;0,00509824
123507;0,00510264
123522,6;0,00509824
123539,5;0,005095308
123555,8;0,005046921
123572,9;0,005042522
123588,9;0,005046921
123606;0,005048387
123622;0,005046921
123638,9;0,005045454
123655,2;0,005055719
123672,2;0,005055719
123688,3;0,00507478
123704,9;0,00507478
123721,5;0,005068915
123738;0,005082111
123754,7;0,005061584
123771,1;0,005058651
123788,1;0,005076246
123804,5;0,005076246
123820,9;0,005046921
123837,4;0,005046921
123854,5;0,005049854
123871,1;0,005070381
123887,6;0,005071848
123904;0,005076246
123920,3;0,005076246
123936,8;0,005058651
123953,4;0,005079179
123970;0,00507478
123986,5;0,00507478
124003,1;0,005068915
124019,9;0,005046921
124036,2;0,005046921
124052,8;0,005033724
124069,4;0,005060117
124086,2;0,005043988
124102,8;0,00506305
124119,2;0,005076246
124135,6;0,005079179
124152,2;0,005079179
124168,8;0,005077713
124185,3;0,005076246
124201,9;0,005052786
124218,5;0,005065983
124235,1;0,005090909
124251,8;0,005089443
124268,1;0,00509824
124284,7;0,005096774
124301,4;0,005080645
124318,1;0,005080645
124334,4;0,005092375
124351;0,005123167
124367,6;0,005146628
124384,3;0,005143695
124400,7;0,005140762
124417,3;0,005143695
124434,2;0,005140762
124450,6;0,005136364
124467,1;0,005127566
124483,5;0,005148094
124500,3;0,005152493
124516,7;0,005164223
124533,2;0,005155426
124549,8;0,005155426
124566,4;0,005161291
124582,9;0,005164223
124599,5;0,0051261
124616,6;0,005121701
124633,3;0,005117302
124649,8;0,005104105
124665,8;0,00509824
124682,3;0,00508651
124698,9;0,005070381
124715,6;0,005068915
124732;0,005065983
124748,9;0,005089443
124765,1;0,005089443
124782,1;0,005093842
124798,3;0,005093842
124815,5;0,005080645
124831,4;0,005085044
124848;0,005073314
124864,8;0,005077713
124881,1;0,005077713
124897,7;0,005068915
124914,8;0,005052786
124930,8;0,005068915
124947,4;0,005068915
124964;0,005067449
124980,6;0,005055719
124997,1;0,005055719
125013,6;0,005026393
125030,4;0,005029325
125046,8;0,005032258
125063,5;0,005026393
125079,9;0,005026393
125102,2;0,005013197
125113,4;0,005007331
125129,6;0,005030792
125146,2;0,005002933
125162,8;0,005002933
125180;0,005016129
125195,9;0,005016129
125212,5;0,005005865
125229;0,005010264
125245,6;0,00501173
125262,2;0,004969209
125278,7;0,004957478
125295,4;0,004956012
125311,9;0,004935484
125328,4;0,004932551
125345;0,004929619
125361,5;0,004923754
125378,1;0,004912023
125394,8;0,004887097
125411,3;0,004887097
125427,8;0,004900293
125444,4;0,004900293
125461;0,004868035
125477,5;0,004857771
125494,5;0,004866569
125510,8;0,004866569
125527,2;0,004854839
125543,8;0,004876833
125560,5;0,004884164
125576,9;0,004875367
125593,5;0,004890029
125610,1;0,004898827
125626,7;0,004912023
125643,2;0,004906158
125659,8;0,004906158
125677,1;0,004894428
125692,9;0,004895894
125710;0,004898827
125726,7;0,004900293
125742,6;0,004897361
125759,1;0,004898827
125775,8;0,004897361
125792,3;0,004897361
125808,9;0,004894428
125825,4;0,00490176
125842;0,004907625
125858,6;0,00491349
125875,1;0,00491349
125891,7;0,004898827
125909;0,004890029
125924,8;0,004890029
125941,4;0,0048739
125958;0,004882698
125974,6;0,004882698
125991,3;0,004882698
126007,8;0,004882698
126024,2;0,004882698
126040,9;0,004882698
126057,7;0,004882698
126074,5;0,004882698
126091,2;0,004885631
126107;0,004885631
126123,6;0,004885631
126140,2;0,004884164
126156,8;0,004884164
126173,3;0,004884164
126190,5;0,004884164
126206,5;0,004884164
126223,5;0,004884164
126239,6;0,004870968
126263,6;0,004872434
126272,8;0,004887097
126289,6;0,004843108
126305,8;0,004840176
126322,4;0,004854839
126339;0,004840176
126356;0,004807918
126372,1;0,004816716
126388,7;0,004824047
126405,4;0,004807918
126421,8;0,004750733
126438,4;0,004733138
126455,1;0,004753666
126471,8;0,004769795
126488,4;0,004740469
126504,7;0,004746334
126521,2;0,004746334
126537,8;0,004741936
126555,3;0,004753666
126571,6;0,004756598
126587,5;0,004753666
126604,1;0,004753666
126620,6;0,004780059
126637,2;0,004793255
126653,8;0,00477566
126670,3;0,00478739
126686,9;0,004806451
126703,5;0,004806451
126720;0,004800586
126736,6;0,004800586
126753,1;0,004815249
126770,3;0,00479912
126786,3;0,004800586
126802,9;0,004791789
126819,4;0,004791789
126836;0,004791789
126852,8;0,004821114
126869,5;0,004825513
126886;0,004809384
126902,3;0,004824047
126918,9;0,004822581
126935,4;0,004834311
126952;0,004818182
126968,5;0,004831378
126985,1;0,004848974
126985,1;0,004898827
127005,1;0,004917888
127020,9;0,004878299
127037,6;0,004888563
127054;0,004888563
127070,6;0,004885631
127087,4;0,0048739
127103,7;0,004898827
127120,3;0,004885631
127136,8;0,004882698
127154;0,004881232
127170;0,004881232
127186,5;0,004869502
127203,1;0,004876833
127219,7;0,004875367
127236,2;0,004872434
127253;0,004853372
127269,4;0,004863637
127285,9;0,004891496
127302,9;0,004884164
127319,1;0,004872434
127335,6;0,004876833
127352,4;0,004879766
127369,4;0,004891496
127385,4;0,004890029
127401,9;0,004888563
127418,5;0,00490176
127435,1;0,004894428
127451,7;0,004920821
127468,2;0,00492522
127484,7;0,00492522
127501,4;0,004935484
127517,9;0,004935484
127534,6;0,004935484
127551,3;0,004957478
127567,6;0,004966276
127584,1;0,004966276
127600,7;0,004956012
127617,5;0,004975074
127633,8;0,004972141
127650,4;0,004950147
127667;0,004928153
127683,5;0,004947214
127700,1;0,004954545
127716,6;0,004954545
127734;0,004979472
127749,8;0,004979472
127766,4;0,004975074
127782,9;0,004954545
127799,5;0,004954545
127816,2;0,004970674
127832,6;0,004969209
127849,2;0,004963343
127865,8;0,004978006
127882,4;0,004972141
127898,9;0,004970674
127915,5;0,004967742
127932,3;0,004978006
127948,8;0,004991203
127966;0,004991203
127981,7;0,004972141
127998,3;0,004961877
128014,9;0,004969209
128031,4;0,004975074
128048;0,004975074
128064,6;0,004967742
128081,1;0,004953079
128097,7;0,004954545
128114,7;0,004963343
128130,8;0,004960411
128147,4;0,004938417
128164,8;0,004934018
128181,1;0,004934018
128197,7;0,004950147
128213,7;0,004953079
128230,2;0,00494868
128246,8;0,004961877
128263,5;0,004945748
128279,9;0,004967742
128296,5;0,004967742
128313,1;0,004979472
128329,6;0,00498827
128346,4;0,004992669
128363;0,004992669
128379,3;0,004985337
128395,9;0,004970674
128412,5;0,004997068
128429;0,004998534
128445,7;0,004998534
128462,8;0,004998534
128478,7;0,00498827
128495,3;0,004961877
128512,6;0,004951613
128528,4;0,004960411
128545,2;0,004938417
128561,6;0,004957478
128578,1;0,00494868
128594,7;0,004945748
128611,3;0,004957478
128628,1;0,004929619
128645,1;0,004939883
128661;0,004954545
128677,5;0,004960411
128694,2;0,004980939
128710,6;0,004980939
128727,4;0,004980939
128743,8;0,004960411
128760,4;0,004960411
128776,9;0,004961877
128793,5;0,004958944
128810,3;0,004958944
128827;0,004958944
128843,2;0,004958944
128859,8;0,004961877
128876,4;0,004964809
128892,9;0,004966276
128909,5;0,004961877
128926,1;0,004961877
128942,9;0,004982405
128959,1;0,004982405
128975,7;0,004982405
128992,4;0,004982405
129009;0,004963343
129025,8;0,004960411
129042;0,004966276
129058,7;0,004966276
129075,1;0,004966276
129091,7;0,004967742
129108,6;0,004891496
129124,8;0,004919355
129141,4;0,004938417
129158;0,004958944
129174,8;0,004928153
129191,5;0,004907625
129207,7;0,004923754
129224,3;0,004914956
129241;0,004914956
129258;0,004914956
129273,9;0,004914956
129290,5;0,004916423
129307,1;0,004917888
129323,6;0,004932551
129340,2;0,004945748
129356,8;0,004919355
129373,3;0,004919355
129389,9;0,004922288
129406,4;0,004928153
129423;0,004935484
129439,6;0,004935484
129456,1;0,004935484
129472,7;0,004898827
129489,3;0,0048739
129505,9;0,004869502
129522,4;0,004847507
129539;0,004847507
129558,2;0,004848974
129572,4;0,004843108
129588,7;0,004834311
129605,3;0,004854839
129621,8;0,004841642
129638,9;0,004843108
129655;0,00485044
129671,5;0,004847507
129688,4;0,004819648
129704,8;0,004806451
129721,3;0,004812317
129737,8;0,004790323
129754,4;0,004806451
129770,9;0,004819648
129787,7;0,004810851
129804,3;0,004812317
129820,8;0,004825513
129837,2;0,00483871
129853,9;0,004832845
129870,6;0,00483871
129886,9;0,004844575
129903,9;0,00483871
129920;0,00482698
129936,7;0,004824047
129953,2;0,00483871
129969,7;0,004837243
129986,3;0,004847507
130002,9;0,004851906
130019,4;0,00485044
130036;0,004853372
130052,7;0,004853372
130069,1;0,004860704
130085,7;0,004853372
130102,3;0,004853372
130119,5;0,004854839
130135,5;0,004869502
130152;0,004866569
130169,1;0,004866569
130185,4;0,004859237
130201,7;0,004868035
130218,2;0,004854839
130234,8;0,004857771
130251,6;0,004847507
130267,9;0,004856305
130284,6;0,004854839
130301,1;0,004854839
130317,6;0,004825513
130334,2;0,004835777
130350,8;0,004832845
130367,6;0,004832845
130384;0,004834311
130400,5;0,004834311
130417,1;0,00482698
130434;0,004815249
130450,1;0,004815249
130467;0,004812317
130483,3;0,004832845
130499,8;0,004840176
130517;0,004843108
130533;0,00482698
130549,6;0,004812317
130566,2;0,004825513
130582,8;0,00482698
130599,3;0,004828446
130615,8;0,004844575
130632,6;0,004832845
130649,4;0,004832845
130665,5;0,004825513
130682,1;0,004810851
130698,7;0,004803519
130715,2;0,004813783
130731,9;0,004813783
130748,4;0,00479912
130764,9;0,004810851
130781,8;0,004819648
130798,4;0,004818182
130814,6;0,004810851
130831,2;0,004800586
130847,9;0,004806451
130864,3;0,004822581
130880,9;0,004822581
130897,6;0,004813783
130914;0,004816716
130930,6;0,004819648
130947,2;0,004813783
130964,3;0,004844575
130980,3;0,004853372
130996,9;0,004851906
131013,4;0,004841642
131030;0,004859237
131046,7;0,004848974
131063,2;0,004851906
131079,7;0,00485044
131096,3;0,004824047
131112,8;0,004824047
131129,4;0,004856305
131146;0,004854839
131162,5;0,004856305
131179,1;0,004859237
131195,6;0,004844575
131212,2;0,004870968
131228,8;0,004878299
131245,3;0,004888563
131261,9;0,004885631
131278,7;0,004885631
131295,1;0,004869502
131311,6;0,004865102
131328,2;0,004857771
131344,8;0,004857771
131361,3;0,004856305
131382;0,004860704
131394,8;0,004866569
131411;0,004847507
131427,6;0,004854839
131444,2;0,004856305
131460,7;0,004837243
131477,3;0,004856305
131493,8;0,004868035
131510,4;0,004909091
131527;0,004909091
131543,5;0,004906158
131560,1;0,004907625
131576,7;0,004917888
131593,3;0,004931085
131609,8;0,004929619
131626,4;0,004920821
131643;0,00492522
131659,8;0,004944282
131676,1;0,004966276
131692,7;0,004972141
131709,4;0,004978006
131725,8;0,004970674
131742,4;0,004979472
131758,9;0,004979472
131775,9;0,004983871
131792;0,005002933
131808,6;0,004998534
131825,2;0,004997068
131841,8;0,004997068
131858,8;0,005017595
131874,9;0,005014663
131891,6;0,004998534
131908,3;0,004997068
131924,7;0,004995601
131941,5;0,004998534
131957,7;0,004978006
131974,3;0,004978006
131990,9;0,004986804
132007,4;0,004978006
132024;0,004970674
132040,8;0,004982405
132057,2;0,004991203
132073,7;0,004992669
132090,3;0,004995601
132107,3;0,004980939
132123,4;0,004998534
132140;0,005001466
132156,7;0,005
132173,1;0,004997068
132189,7;0,004980939
132206,2;0,004967742
132222,9;0,004966276
132239,3;0,004966276
132256;0,004961877
132272,8;0,004973607
132289;0,004973607
132305,6;0,004970674
132322,2;0,004963343
132338,8;0,004950147
132355,3;0,004941349
132372,1;0,004950147
132388,5;0,004957478
132405,2;0,004963343
132421,6;0,004941349
132438,6;0,004941349
132454,7;0,004954545
132471,7;0,004969209
132487,9;0,004960411
132504,4;0,004957478
132521;0,004964809
132537,8;0,004972141
132554,4;0,004982405
132571,3;0,004982405
132587,3;0,00498827
132603,8;0,004979472
132620,8;0,004979472
132637,5;0,004980939
132653,5;0,004980939
132670,1;0,004980939
132686,7;0,004995601
132703,2;0,004967742
132719,8;0,004969209
132736,4;0,004954545
132752,9;0,004964809
132769,5;0,004944282
132786,1;0,004950147
132802,6;0,004957478
132819,2;0,004960411
132835,8;0,004951613
132852,4;0,004929619
132868,9;0,00493695
132885,5;0,004934018
132902;0,004926686
132918,6;0,004932551
132935,2;0,004928153
132952,3;0,004941349
132968,3;0,004917888
132984,8;0,004914956
133001,4;0,004922288
133018;0,004920821
133034,8;0,00491349
133051,3;0,004931085
133067,9;0,004910557
133084,3;0,004907625
133101,2;0,004916423
133117,7;0,004916423
133134;0,00491349
133150,9;0,004910557
133167,1;0,004890029
133183,7;0,004909091
133200,9;0,004909091
133216,8;0,004904692
133233,9;0,004881232
133249,9;0,004881232
133266,5;0,004884164
133283;0,004881232
133299,6;0,004881232
133316,6;0,004872434
133332,8;0,004891496
133349,3;0,004882698
133366,4;0,004866569
133382,5;0,004892962
133399,2;0,004897361
133415,6;0,004912023
133432,8;0,00490176
133448,7;0,004929619
133465,3;0,004934018
133482,3;0,004931085
133499,3;0,004919355
133515;0,004890029
133531,6;0,004881232
133548,7;0,004887097
133564,7;0,004904692
133581,3;0,004890029
133597,8;0,004892962
133614,7;0,004892962
133631,4;0,004892962
133647,5;0,004869502
133664,1;0,00486217
133680,7;0,00486217
133697,2;0,004843108
133713,8;0,004834311
133730,3;0,004844575
133746,9;0,004844575
133763,6;0,004837243
133780,5;0,004813783
133796,6;0,00479912
133813,2;0,004793255
133830,1;0,004797654
133846,3;0,00478739
133862,9;0,004780059
133879,5;0,004772727
133896;0,004772727
133912,6;0,004772727
133929,2;0,004784457
133945,9;0,00477566
133962,3;0,004782991
133978,8;0,004780059
133996,1;0,004797654
134012;0,004782991
134028,6;0,004781525
134050,6;0,004807918
134061,9;0,004813783
134078,3;0,004793255
134094,8;0,004813783
134111,4;0,004809384
134128;0,004797654
134144,7;0,00479912
134161,1;0,004793255
134177,7;0,004800586
134194,2;0,004810851
134210,8;0,004804986
134227,4;0,004812317
134243,9;0,004821114
134260,5;0,004828446
134277;0,004840176
134293,6;0,004819648
134310,2;0,004831378
134326,8;0,004831378
134343,4;0,004829912
134359,9;0,004829912
134376,5;0,004825513
134393,1;0,004831378
134409,6;0,004832845
134426,1;0,004825513
134443,2;0,004825513
134459,3;0,004818182
134475,9;0,00482698
134492,4;0,004835777
134509;0,004856305
134525,6;0,004846041
134542,1;0,004846041
134558,7;0,004866569
134575,3;0,004870968
134592,5;0,004853372
134608,4;0,004869502
134625;0,004868035
134641,5;0,004866569
134658,8;0,004878299
134674,7;0,004872434
134691,3;0,004866569
134707,8;0,004866569
134724,3;0,004870968
134740,9;0,004881232
134757,5;0,004863637
134774,1;0,004863637
134790,6;0,004868035
134807,2;0,004854839
134823,9;0,004860704
134840,3;0,004860704
134856,9;0,004868035
134873,5;0,004854839
134890;0,004888563
134906,6;0,004887097
134927,8;0,004906158
134939,7;0,004887097
134956,3;0,004882698
134972,9;0,004882698
134989,4;0,004863637
135006;0,004872434
135022,5;0,004892962
135039,7;0,004879766
135055,9;0,004879766
135072,3;0,004876833
135088,8;0,004876833
135105,4;0,004884164
135122;0,0048739
135138,7;0,004881232
135155,1;0,004891496
135171,6;0,004891496
135188,2;0,004932551
135204,8;0,004979472
135221,7;0,004979472
135237,9;0,005304985
135254,5;0,005348973
135271,1;0,005514663
135287,6;0,005601173
135304,5;0,005725807
135320,8;0,005725807
135337,3;0,005731672
135353,9;0,00579912
135370,5;0,00579912
135387;0,005982405
135403,9;0,006024927
135420,2;0,006057185
135436,7;0,006104106
135453,3;0,006095308
135469,8;0,006112903
135486,4;0,006104106
135503;0,006104106
135519,5;0,00621261
135536,1;0,006269795
135552,7;0,00627566
135569,6;0,00627566
135585,8;0,006322581
135602,4;0,006410557
135619,1;0,006479472
135635,6;0,006516129
135652,1;0,006516129
135668,7;0,00657478
135685,3;0,006590909
135702;0,006645161
135718,4;0,006665689
135735,2;0,006665689
135751,7;0,006753666
135768,2;0,006821115
135784,6;0,006876833
135801,2;0,006907625
135817,8;0,006907625
135834,3;0,006923754
135853,9;0,006938417
135867,5;0,006951613
135884,4;0,007027859
135900,6;0,007057185
135918,1;0,007152493
135933,7;0,007152493
135950,3;0,007285924
135966,9;0,007420821
135983,5;0,007422287
136000;0,00747654
136016,6;0,007535191
136033,3;0,00761437
136049,7;0,007659824
136066,9;0,007708211
136083,2;0,007800587
136099,4;0,007835777
136116;0,007840176
136132,5;0,007840176
136149,1;0,007898827
136165,9;0,008118768
136182,2;0,008199413
136198,8;0,00823607
136215,4;0,008244868
136231,9;0,008382698
136248,5;0,008746334
136265,2;0,008906159
136281,8;0,008906159
136298,2;0,009007332
136314,8;0,009014663
136331,5;0,009014663
136347,9;0,009096774
136364,5;0,009310851
136381;0,009392962
136397,6;0,009457478
136414,2;0,009520528
136430,7;0,009595308
136447,3;0,009601173
136463,9;0,009601173
136480,6;0,00961437
136497;0,00961437
136513,7;0,009722874
136530,6;0,009950147
136546,7;0,01005865
136563,4;0,01011584
136579,8;0,01015103
136596,4;0,01017009
136613;0,01017009
136629,6;0,01015689
136646,1;0,0102346
136662,7;0,01029912
136679,2;0,01035191
136695,8;0,01043255
136712,4;0,01046481
136729;0,01054106
136746;0,0106173
136762;0,01067009
136778,7;0,01070528
136795,2;0,01071848
136811,8;0,01074633
136828,3;0,01075806
136844,9;0,01078006
136861,5;0,01078006
136878,3;0,01094721
136894,6;0,01114516
136911,4;0,01134751
136927,7;0,01147801
136944,3;0,01164956
136960,9;0,01182258
136977,4;0,01194135
136994;0,01201613
137010,6;0,01203666
137027,1;0,01207185
137043,7;0,01215982
137060,4;0,01237537
137077,3;0,01247214
137093,4;0,01247214
137110;0,01249267
137126,5;0,01249267
137143,1;0,0125176
137160,2;0,01253959
137176,2;0,01255865
137192,8;0,0124912
137209,3;0,01246188
137226,1;0,01266569
137242,5;0,01279472
137259;0,01295601
137275,7;0,01291349
137292,6;0,01291349
137309,1;0,01284311
137325,3;0,0128695
137341,9;0,01291936
137358,5;0,01297947
137375,1;0,0130044
137391,6;0,01315836
137408,2;0,01318182
137424,8;0,01312757
137441,3;0,01315982
137458,3;0,01320528
137474,4;0,01323021
137491;0,01323021
137507,6;0,01315982
137524,3;0,0132346
137540,7;0,01322874
137557,5;0,01322874
137574,1;0,0132346
137590,4;0,01327859
137607;0,01334897
137626,7;0,01331965
137640,1;0,01332405
137656,7;0,01331672
137673,2;0,01342229
137689,8;0,01343402
137706,4;0,01340029
137722,9;0,01341349
137739,5;0,01340909
137756,1;0,01341496
137772,6;0,01339443
137789,2;0,01353959
137805,8;0,01365103
137822,3;0,01368915
137838,9;0,01367742
137855,9;0,01362463
137872,6;0,01363783
137888,6;0,01363197
137905,2;0,01369648
137921,7;0,01369648
137938,3;0,01384018
137954,8;0,01385044
137971,4;0,01381378
137988;0,01378592
138005;0,01369355
138021,3;0,01369208
138037,7;0,01365249
138054,6;0,01363636
138070,8;0,01359384
138087,5;0,01353959
138104;0,01362024
138120,5;0,01362024
138137,1;0,01373021
138153,7;0,01366716
138170,2;0,0136349
138186,8;0,0136305
138203,4;0,0136305
138219,9;0,01358065
138236,6;0,01353226
138253;0,01328153
138269,8;0,01328153
138286,3;0,01323607
138303;0,01323167
138319,3;0,01323021
138336,1;0,01323021
138352,5;0,01313196
138369;0,01314076
138385,6;0,01303959
138402,2;0,01303959
138418,7;0,0129824
138435,3;0,01284457
138451,9;0,01284751
138468,5;0,01285484
138485;0,0127346
138501,6;0,01266569
138518,5;0,01247067
138534,7;0,01247067
138552;0,01246921
138567,8;0,01250147
138584,4;0,0124956
138601;0,0125132
138617,5;0,01251466
138634,9;0,01247361
138650,7;0,01247361
138667,2;0,01243109
138683,9;0,01242669
138700,4;0,01234311
138717,5;0,01231525
138733,5;0,01231525
138750,1;0,01233431
138766,7;0,01235924
138783,2;0,0123739
138799,8;0,0123739
138816,3;0,01241202
138833,9;0,01242375
138849,9;0,01239589
138866;0,01238856
138882,6;0,01238856
138899,2;0,01199707
138916,3;0,01184311
138932,3;0,011739
138948,9;0,011739
138965,4;0,011739
138982;0,011739
138998,6;0,011739
139015,1;0,01167449
139031,7;0,01165982
139048,9;0,01165982
139064,8;0,01140323
139081,4;0,01139883
139098,1;0,0111129
139114,6;0,01105719
139131,1;0,01109238
139147,7;0,01107478
139164,2;0,01106598
139180,8;0,01103812
139197,4;0,01096188
139213,9;0,01093108
139230,9;0,01093108
139247,1;0,01093108
139263,6;0,01094135
139280,2;0,01050587
139296,8;0,01028886
139313,3;0,01017155
139329,9;0,01016716
139346,5;0,01017155
139363;0,0101129
139379,6;0,01002786
139396,2;0,009802053
139412,8;0,009796188
139429,4;0,00980352
139446;0,009841642
139462,5;0,00982698
139479,1;0,009945747
139495,7;0,009945747
139512,7;0,01002639
139528,8;0,009932552
139545,4;0,009956012
139562,3;0,009957478
139578,9;0,00991349
139595,9;0,009834311
139612;0,009733138
139628,3;0,009758065
139644,8;0,009758065
139661,3;0,009796188
139677,9;0,009967742
139694,4;0,009958944
139711,1;0,009882698
139728;0,009909091
139744,1;0,01007918
139761,3;0,01009384
139777,3;0,00991349
139794;0,009879765
139810,6;0,009769795
139827;0,00975953
139843,5;0,009768329
139860,3;0,009816715
139876,7;0,009859238
139893,3;0,009859238
139909,9;0,009793255
139926,6;0,009674487
139943;0,009520528
139959,5;0,009552786
139976,1;0,009541056
139992,6;0,009593842
140009,2;0,009579179
140025,8;0,009587977
140042,3;0,009630498
140059,7;0,009648094
140075,5;0,009639297
140092,1;0,009648094
140108,6;0,009639297
140125,2;0,009507331
140141,9;0,00948827
140158,3;0,009406159
140175,1;0,009360704
140191,5;0,009368035
140208,3;0,009363636
140224,6;0,009363636
140241,5;0,009363636
140258,1;0,009347508
140274,3;0,009258064
140291,5;0,009282991
140307,4;0,009319648
140324;0,009372434
140340,5;0,009491202
140357,1;0,009580646
140373,7;0,009655425
140390,4;0,009609971
140406,8;0,009639297
140423,4;0,009659824
140439,9;0,009690616
140456,5;0,009681818
140473,1;0,009634897
140489,7;0,009642228
140506,2;0,009634897
140522,8;0,009662757
140539,4;0,009662757
140556,7;0,009711144
140572,5;0,009796188
140589,5;0,009791789
140606;0,009782991
140622,6;0,009806451
140639,2;0,009829912
140655,9;0,009828446
140672,1;0,009859238
140688,5;0,009894428
140705;0,009941349
140721,6;0,009945747
140739;0,01000147
140754,7;0,01034897
140771,9;0,01034164
140787,8;0,01034311
140804,4;0,01037243
140821;0,01038563
140837,6;0,01038416
140854,2;0,01052493
140871;0,01058211
140887,3;0,01061144
140904;0,01062903
140920,4;0,01067302
140937;0,01065836
140953,5;0,01066716
140970,8;0,01066716
140986,7;0,01074487
141003,2;0,01118915
141019,8;0,01120235
141036,3;0,01121554
141052,9;0,01126393
141069,5;0,01127713
141086,6;0,01126686
141102,6;0,01125073
141119,2;0,01124047
141136,1;0,0112478
141152,9;0,01127419
141168,9;0,01132258
141185,4;0,01139296
141202;0,01140176
141219,6;0,01137537
141235,2;0,01137977
141252,3;0,01145161
141268,3;0,01148094
141284,8;0,01152053
141301,4;0,01159824
141318,3;0,0116173
141334,9;0,01157625
141351,4;0,01157038
141368,2;0,0115088
141384,3;0,01152053
141400,8;0,01152786
141417,5;0,01155279
141434;0,01154692
141450,6;0,01154546
141467,1;0,01154106
141483,7;0,01148094
141500,2;0,01148094
141516,8;0,01148827
141533,5;0,01155572
141550,5;0,01208944
141566,5;0,01215982
141583,6;0,01215396
141599,6;0,01215396
141616,3;0,01216129
141632,8;0,01216862
141649,3;0,01196628
141665,9;0,01225513
141682,5;0,01227713
141699;0,01222434
141715,9;0,01210117
141732,1;0,01208798
141748,7;0,01208798
141765,3;0,01196774
141781,8;0,01197067
141798,4;0,01200293
141815;0,01207185
141831,5;0,01207771
141848,8;0,01205865
141864,7;0,01203079
141881,4;0,0120132
141897,8;0,0119868
141914,6;0,0119868
141931;0,01201173
141947,8;0,01193842
141964,2;0,0118651
141980,7;0,01179179
141997,2;0,01177273
142014;0,01177273
142030,7;0,01171114
142047;0,01165982
142063,5;0,01165982
142080;0,0116217
142097,1;0,01157478
142113,2;0,01157478
142136,5;0,0114868
142146,3;0,01144575
142162,9;0,01143695
142179,4;0,01140762
142196;0,01140762
142212,6;0,01137977
142229,1;0,01134897
142245,7;0,01134897
142262,7;0,01134164
142279,1;0,01123314
142295,4;0,01113343
142312;0,01072434
142328,6;0,01069355
142345,2;0,01065689
142361,7;0,01051466
142378,5;0,01048094
142394,8;0,01046921
142411,4;0,01043695
142428,1;0,0103915
142444,5;0,01037977
142461,1;0,0103695
142477,6;0,01037243
142494,5;0,01037243
142510,8;0,01033578
142528,1;0,01025513
142544,1;0,01022141
142560,5;0,0101437
142577;0,01002786
142593,6;0,009997068
142610,2;0,009934017
142626,7;0,00991349
142643,8;0,009892962
142660,3;0,009863636
142676,5;0,009834311
142693;0,009766862
142709,6;0,009695015
142727;0,009695015
142743,1;0,009171554
142759,4;0,00906305
142775,8;0,009020528
142792,4;0,008982405
142809;0,008917889
142825,5;0,008848974
142842,2;0,008818182
142858,7;0,008818182
142875,3;0,008768328
142892;0,00863783
142908,4;0,008592376
142925,1;0,008504399
142941,5;0,008351906
142958,1;0,008290322
142974,7;0,008183285
142991,7;0,007995601
143008,6;0,007995601
143026,4;0,007762463
143040,9;0,00767302
143057,8;0,007624634
143074,3;0,007570381
143090,6;0,007558651
143107,6;0,007558651
143123,8;0,007529326
143140,3;0,00747654
143157;0,007384164
143173,8;0,007384164
143190;0,007285924
143206,6;0,007218475
143223,1;0,007168622
143239,7;0,007156892
143256,3;0,007079179
143272,8;0,007017595
143289,4;0,00698827
143306,9;0,006909091
143322,5;0,006854839
143339,1;0,006784458
143355,7;0,006758064
143372,3;0,006718475
143389;0,00671261
143405,5;0,00671261
143422;0,006674487
143438,5;0,006595308
143455,1;0,006524927
143471,7;0,006463343
143489,1;0,006463343
143505;0,006431085
143521,3;0,006331378
143538,1;0,006331378
143554,9;0,005800587
143571;0,0055
143588,1;0,005482405
143604,2;0,00546041
143621;0,005439883
143637,3;0,005388563
143653,9;0,005112903
143670,4;0,005016129
143687;0,005029325
143703,6;0,005017595
143720,3;0,004978006
143736,7;0,00494868
143753,3;0,004929619
143770,3;0,004906158
143786,7;0,004846041
143803;0,004737537
143819,5;0,004721408
143836,1;0,004690616
143852,7;0,004699414
143869,3;0,004645161
143885,8;0,004645161
143902,4;0,004645161
143919,4;0,004634897
143935,6;0,004585044
143952,1;0,004579179
143969,1;0,004579179
143985,2;0,004542522
144002,2;0,004538123
144018,4;0,004535191
144035,4;0,004517595
144051,5;0,00452346
144068,1;0,004527859
144084,6;0,004527859
144101,5;0,004521994
144117,9;0,004526393
144134,3;0,004526393
144150,9;0,004513197
144167,6;0,004517595
144184;0,004505865
144200,6;0,004501466
144217,2;0,004491203
144233,7;0,004485337
144251,1;0,004486803
144266,8;0,004486803
144283,4;0,004489736
144300;0,00448827
144316,5;0,004492669
144333,1;0,00448827
144349,7;0,004504399
144366,7;0,0045
144383,1;0,004497068
144399,5;0,004514663
144415,9;0,004510264
144432,6;0,00448827
144449,1;0,00448827
144465,9;0,004491203
144482,2;0,004489736
144498,8;0,004491203
144515,3;0,004486803
144531,9;0,0045
144548,5;0,0045
144565,2;0,004517595
144898,5;0,00464956
144961;0,004592375
144977,6;0,004589443
144994,2;0,004583578
145010,8;0,004583578
145027,3;0,004580645
145044,4;0,004599707
145060,5;0,004599707
145086,5;0,004583578
145103,6;0,004589443
145119,6;0,00458651
145137;0,004577713
145152,8;0,004577713
145169,3;0,004608504
145185,9;0,004602639
145202,5;0,00458651
145219,3;0,004580645
145245,6;0,004599707
145262,5;0,004605572
145278,7;0,004615836
145295,3;0,004620234
145312,7;0,004617302
145328,7;0,0046261
145345,5;0,004623167
145361,8;0,004623167
145378,6;0,004615836
145411,1;0,004648094
145428,2;0,004658358
145444,6;0,004670088
145460,8;0,004674487
145477,4;0,00467742
145494;0,004678885
145510,5;0,004690616
145527,1;0,004684751
145543,8;0,004684751
145572,4;0,004684751
145589;0,004702346
145605,6;0,004721408
145622,1;0,00471261
145638,7;0,004705279
145655,3;0,004705279
145672,3;0,00470088
145698,8;0,004705279
145728,6;0,004678885
145745,4;0,004687683
145761,7;0,004680352
145778,6;0,00467302
145795,5;0,00468915
145811,4;0,004696481
145828;0,004696481
145845,1;0,004684751
145861,1;0,004648094
145890,2;0,00466129
145906,8;0,004648094
145923,7;0,004656891
145939,9;0,004665689
145956,5;0,004653959
145973,1;0,004653959
145989,6;0,004670088
146006,5;0,00467302
146022,9;0,004643695
146054,6;0,004664223
146071,2;0,004656891
146088;0,004642229
146104,8;0,004633431
146120,8;0,004643695
146137,5;0,00463783
146154,3;0,004630499
146170,7;0,004633431
146187,6;0,004642229
146225,6;0,004658358
146242,2;0,004658358
146258,8;0,00463783
146275,3;0,004642229
146292,2;0,004621701
146308,5;0,004621701
146325;0,00463783
146341,9;0,004648094
146370,9;0,004631965
146396,3;0,00466129
146413,2;0,004667155
146430;0,004668622
146446;0,004674487
146462,5;0,004668622
146479,6;0,004655425
146495,7;0,004662757
146535,3;0,004664223
146589,5;0,004631965
146630,9;0,004623167
146673,3;0,004617302
146718;0,004593842
146751,2;0,004590909
146767,8;0,004590909
146784,3;0,004590909
146800,9;0,004595308
146817,5;0,004577713
146834;0,00459824
146863,7;0,004611437
146880,4;0,004611437
146896,8;0,004611437
146913,4;0,004623167
146939,3;0,004630499
146955,8;0,004642229
146972,4;0,00463783
146989;0,00463783
147020,1;0,004645161
147037,2;0,004646628
147053,6;0,004646628
147069,8;0,004646628
147086,8;0,004646628
147102,9;0,004639296
147119,5;0,004645161
147136;0,004656891
147152,6;0,00463783
147192,3;0,004627566
147222,6;0,004642229
147239,4;0,004642229
147283,9;0,004643695
147315,6;0,004646628
147344,2;0,004624634
147360,8;0,004624634
147377,5;0,004615836
147394,7;0,004629032
147410,6;0,0046261
147427,4;0,004623167
147443,8;0,004621701
147460,6;0,004634897
147477;0,004627566
147518,1;0,004604106
147534,7;0,004609971
147551,4;0,004615836
147568,3;0,004604106
147584,4;0,004612903
147600,9;0,004599707
147617,5;0,004627566
147634,1;0,004624634
147666,8;0,004630499
147683,7;0,004636364
147700,3;0,004639296
147717,1;0,004639296
147733,4;0,004651026
147750;0,004648094
147766,6;0,004653959
147783,7;0,004667155
147813,4;0,004651026
147830,4;0,004652493
147846,5;0,004648094
147863;0,00466129
147880,3;0,00467742
147896,2;0,00467742
147912,8;0,004667155
147929,3;0,004667155
147945,9;0,004670088
147976,8;0,004662757
147993,3;0,004658358
148010;0,004646628
148026,5;0,00467302
148043;0,004683285
148059,6;0,004656891
148076,2;0,004656891
148093,2;0,004674487
148109,6;0,004674487
148139,2;0,004667155
148155,8;0,004667155
148180,6;0,00467302
148197,1;0,004695015
148213,7;0,004670088
148230,9;0,004681818
148247,2;0,004693549
148263,4;0,00468915
148290;0,004697947
148306,9;0,004699414
148323,3;0,004699414
148339,7;0,00470088
148356,3;0,004692082
148372,9;0,004692082
148389,5;0,00471261
148406,4;0,00470088
148422,5;0,004702346
148447,6;0,004715543
148464,2;0,004718475
148480,7;0,004719941
148497,3;0,004717009
148513,9;0,004717009
148530,4;0,004715543
148547,1;0,00471261
148563,7;0,00471261
148580,1;0,004706745
148604,5;0,004696481
148621,1;0,004711144
148637,9;0,00470088
148654,5;0,004687683
148670,8;0,004687683
148687,4;0,004684751
148704;0,004695015
148720,5;0,004686217
148737,3;0,004695015
148762,3;0,004693549
148779,6;0,004692082
148795,4;0,004687683
148812;0,004699414
148828,5;0,004692082
148848;0,00467302
148861,7;0,004680352
148878,2;0,004692082
148895,2;0,004690616
148919,7;0,004675953
148936,3;0,004680352
148953,3;0,004683285
148969,5;0,004683285
148986;0,004692082
149002,6;0,004692082
149019,1;0,004692082
149035,8;0,004683285
149052,7;0,004699414
149077,7;0,00468915
149094,3;0,00468915
149111,6;0,004684751
149127,4;0,004684751
149144;0,004671554
149160,5;0,004671554
149177,7;0,004690616
149193,7;0,004690616
149210,2;0,004683285
149235,8;0,00467302
149252,3;0,004687683
149269,3;0,00470088
149285,7;0,004714076
149302;0,004714076
149319,1;0,004696481
149335,2;0,004697947
149351,8;0,004714076
149368,3;0,004692082
149396,4;0,004703812
149412,9;0,004699414
149429,5;0,004683285
149446,4;0,004667155
149462,9;0,00467742
149479,2;0,00467742
149495,8;0,004665689
149512,3;0,004665689
149528,9;0,004678885
149560,9;0,004664223
149577,4;0,004651026
149594,4;0,004655425
149610,8;0,004648094
149627,1;0,00464956
149643,7;0,004648094
149660,3;0,004652493
149677,1;0,00463783
149693,4;0,004643695
149717,4;0,004659824
149734;0,004643695
149751,2;0,004643695
149767,3;0,004634897
149783,7;0,004636364
149800,3;0,004646628
149816,9;0,004634897
149833,4;0,004634897
149850,6;0,004631965
149875;0,00464956
149891,6;0,004642229
149908,1;0,004636364
149924,7;0,004627566
149941,3;0,004640763
149957,8;0,004651026
149974,5;0,004648094
149991;0,004648094
150008,1;0,004645161
150031,7;0,004630499
150048,8;0,004615836
150064,9;0,004620234
150081,5;0,004620234
150098;0,004621701
150115;0,004643695
150131,2;0,004627566
150147,7;0,004633431
150164,6;0,004633431
150189,3;0,004633431
150205,8;0,004620234
150222,4;0,004629032
150239;0,004627566
150259,2;0,004627566
150275,7;0,004639296
150292,5;0,004639296
150309,3;0,00463783
150325,5;0,004627566
150349,2;0,004620234
150365,9;0,004620234
150382,3;0,004607038
150398,8;0,004604106
150415,4;0,004609971
150432;0,004614369
150448,5;0,004614369
150465,1;0,004614369
150481,8;0,004614369
150506,8;0,004642229
150523,4;0,004623167
150539,9;0,004640763
150556,8;0,004643695
150573,1;0,004643695
150590,1;0,004652493
150606,3;0,00464956
150622,8;0,004662757
150639,3;0,004662757
150662,9;0,004670088
150679,5;0,004670088
150696,5;0,004670088
150712,9;0,004670088
150729,2;0,004670088
150745,7;0,004670088
150763;0,004681818
150778,9;0,00467742
150795,4;0,004674487
150819,5;0,004674487
150836;0,004667155
150852,6;0,004667155
150869,3;0,004684751
150885,8;0,00468915
150902,7;0,004668622
150918,9;0,004693549
150935,6;0,004684751
150952,4;0,004684751
150988,1;0,004667155
151004,7;0,004662757
151021,5;0,004659824
151037,8;0,004655425
151054,4;0,004659824
151071;0,004655425
151087,5;0,004655425
151104,7;0,00464956
151128,3;0,004653959
151144,9;0,004667155
151161,5;0,004659824
151178,3;0,004671554
151194,7;0,004692082
151211,2;0,004699414
151227,7;0,00470088
151244,6;0,00470088
151260,9;0,004717009
151285,5;0,004697947
151302,1;0,00470088
151319;0,00468915
151335,5;0,004696481
151351,8;0,004664223
151368,4;0,004675953
151385;0,004656891
151401,5;0,004658358
151418,1;0,00466129
151441,2;0,004667155
151457,9;0,004658358
151474,3;0,004653959
151491,5;0,004664223
151508;0,004687683
151524;0,00467742
151540,6;0,004664223
151557,4;0,004692082
151573,7;0,004680352
151597,9;0,004664223
151614,5;0,004690616
151631;0,004665689
151647,6;0,004674487
151668,4;0,004674487
151681,8;0,004680352
151698,3;0,00467302
151714,9;0,00466129
151731,5;0,00466129
151754,5;0,004658358
151771,2;0,004658358
151787,6;0,004659824
151804,3;0,00464956
151820,7;0,004640763
151837,3;0,004630499
151853,8;0,0046261
151870,4;0,004630499
151887;0,004623167
151911,8;0,004655425
151928,5;0,004651026
151944,9;0,004639296
151961,5;0,004611437
151978;0,004617302
151994,6;0,004617302
152011,2;0,004615836
152028;0,004607038
152044,3;0,004608504
152067,6;0,004596774
152084,2;0,004583578
152100,8;0,00458651
152117,5;0,004592375
152133,9;0,004579179
152150,9;0,004589443
152167;0,004589443
152183,9;0,004602639
152200,5;0,004602639
152223,6;0,004595308
152240,1;0,004582111
152256,7;0,004582111
152273,3;0,004595308
152290,5;0,004604106
152306,4;0,004596774
152323,1;0,004596774
152339,5;0,004614369
152356,1;0,004608504
152380;0,004593842
152396,6;0,004593842
152418,3;0,004599707
152434,9;0,004602639
152451,5;0,004602639
152468;0,004624634
152484,6;0,004620234
152501,2;0,004601173
152517,9;0,004589443
152541,8;0,004579179
152558,4;0,004587977
152575;0,004582112
152591,6;0,004570381
152608,1;0,004570381
152624,8;0,004568915
152641,2;0,004579179
152657,8;0,004565983
152674,4;0,004567449
152700,6;0,004580645
152717,4;0,004587977
152733,8;0,004573314
152750,3;0,004565983
152766,9;0,004565983
152783,5;0,004577713
152800;0,004567449
152816,6;0,004567449
152833,1;0,004599707
152857,1;0,004570381
152873,6;0,004573314
152891;0,004576246
152907;0,004561584
152923,9;0,004560117
152939,9;0,004573314
152956,5;0,004570381
152973,2;0,004565983
152989,6;0,004577713
153013,7;0,004577713
153030,8;0,004576246
153046,8;0,004576246
153063,4;0,00457478
153084,9;0,004564516
153098,3;0,004576246
153115,5;0,004570381
153131,9;0,004561584
153148,2;0,004561584
153171,9;0,004561584
153188,5;0,004533724
153205;0,004542522
153221,6;0,004533724
153238,5;0,004543988
153255,6;0,004517595
153271,3;0,004520528
153287,9;0,004520528
153304,4;0,004520528
153330,4;0,004535191
153346,9;0,004533724
153363,5;0,004536657
153380,5;0,004542522
153397,1;0,004546921
153413,2;0,004571848
153429,8;0,004565983
153446,3;0,004579179
153462,9;0,004592375
153487,1;0,004590909
153503,7;0,004599707
153520,2;0,004589443
153537,3;0,004602639
153554,2;0,004604106
153570,2;0,004604106
153586,7;0,004617302
153603,3;0,004629032
153619,6;0,004611437
153643,7;0,004621701
153660,3;0,004620234
153676,8;0,004617302
153694,1;0,004617302
153710;0,004617302
153726,7;0,004646628
153743,5;0,004655425
153759,7;0,004651026
153776,3;0,004674487
153812;0,004686217
153828,5;0,004697947
153845,1;0,004697947
153861,7;0,004680352
153878,3;0,004706745
153894,8;0,004706745
153911,4;0,004680352
153928,3;0,00468915
153953,1;0,004686217
153970,1;0,00468915
153986,3;0,004678886
154002,8;0,00468915
154019,7;0,00468915
154036;0,004727273
154052,5;0,004717009
154069,1;0,004737537
154085,6;0,004746334
154108;0,004731671
154124,6;0,004733138
154141,2;0,004730206
154158,1;0,004722874
154174,3;0,004722874
154190,9;0,00471261
154207,4;0,004709677
154224;0,004728739
154240,9;0,004715543
154265;0,004714076
154281,6;0,004714076
154298,5;0,004731671
154315,1;0,004731671
154331,5;0,004727273
154347,8;0,004727273
154364,4;0,004739003
154381,1;0,004731671
154397,5;0,004760997
154421,6;0,004740469
154438,2;0,004756598
154454,8;0,004750733
154471,9;0,004774194
154487,9;0,00476393
154504,5;0,004759531
154524;0,00478739
154540,6;0,004791789
154557,1;0,004781525
154581,5;0,004780059
154598,1;0,004791789
154614,7;0,004772727
154631,3;0,004766862
154648,2;0,004766862
154664,8;0,004760997
154681,1;0,0047522
154697,5;0,004759531
154714,1;0,004749267
154737,7;0,004753666
154754,3;0,004750733
154771,1;0,004744868
154787,9;0,004759531
154804;0,0047522
154820,6;0,004746334
154837,1;0,004747801
154853,9;0,004747801
154870,3;0,004739003
154894,1;0,004728739
154910,7;0,004747801
154927,5;0,004747801
154943,8;0,004741936
154960,4;0,004741936
154976,9;0,004741936
154993,5;0,004730206
155010,2;0,004725806
155026,7;0,004743402
155051,1;0,004749267
155067,6;0,004749267
155084,2;0,004769795
155100,8;0,004768328
155118;0,004758065
155133,9;0,004744868
155150,5;0,004744868
155167;0,004744868
155184,1;0,004734604
155208;0,004733138
155230,1;0,004734604
155247,3;0,004727273
155263,7;0,004727273
155279,8;0,004743402
155296,6;0,004743402
155313;0,004728739
155329,5;0,004725806
155346,2;0,004728739
155368,9;0,004728739
155385,9;0,004725806
155402,5;0,004725806
155418,6;0,004708211
155435,3;0,004702346
155451,7;0,004693549
155469,1;0,004699414
155485,6;0,00468915
155501,4;0,004683285
155524,4;0,004703812
155541;0,004709677
155558,1;0,004702346
155574,1;0,004706745
155591,6;0,004708211
155607,5;0,004708211
155623,9;0,004697947
155640,4;0,004725806
155657;0,004708211
155681,3;0,004686217
155697,8;0,004692082
155714,4;0,004687683
155731;0,004711144
155747,5;0,00470088
155764,1;0,00470088
155780,7;0,004683285
155797,2;0,004671554
155813,8;0,004684751
155836,3;0,004684751
155853,3;0,00468915
155869,4;0,004670088
155886,6;0,00467302
155902,9;0,00467742
155919,4;0,004671554
155936,2;0,004671554
155956,2;0,00467742
155972,8;0,004703812
155997,5;0,00471261
156014,1;0,004714076
156030,7;0,004693549
156047,2;0,00470088
156064,2;0,00470088
156080,4;0,004703812
156096,9;0,004709677
156113,5;0,004717009
156130,1;0,004703812
156153,1;0,004722874
156170,2;0,004725806
156186,2;0,004725806
156202,8;0,004728739
156219,4;0,004728739
156236;0,004744868
156252,5;0,004739003
156269,1;0,004737537
156285,7;0,004731671
156309,6;0,004699414
156326,1;0,004717009
156342,7;0,004708211
156359,3;0,004702346
156375,8;0,004696481
156392,4;0,004705279
156409;0,004699414
156425,5;0,004699414
156442,1;0,00468915
156465;0,00468915
156481,6;0,004690616
156498,4;0,004697947
156514,7;0,004683285
156531,3;0,004695015
156547,9;0,004686217
156564,4;0,004690616
156581;0,004711144
156597,9;0,004705279
156619,6;0,004705279
156636,2;0,004705279
156653,4;0,004725806
156673,3;0,004727273
156689,8;0,004741936
156706,7;0,004744868
156723,5;0,004750733
156740;0,004730206
156756,1;0,004711144
156779,7;0,004711144
156796,3;0,004731671
156813,6;0,004731671
156829,5;0,004731671
156846;0,004731671
156862,5;0,004725806
156879,4;0,004727273
156896,2;0,004741936
156913;0,004736071
156937,5;0,004717009
156954,1;0,004715543
156970,6;0,00472434
156987,2;0,004715543
157003,8;0,004715543
157020,5;0,004721408
157036,9;0,00470088
157053,5;0,004697947
157070;0,004703812
157093,1;0,00471261
157110;0,004696481
157126,5;0,004699414
157142,9;0,004709677
157159,4;0,004709677
157176;0,00471261
157192,5;0,00471261
157209,3;0,004728739
157225,8;0,004736071
157251,3;0,004728739
157268;0,004728739
157284,4;0,004728739
157301,4;0,00468915
157317,6;0,004693549
157334,2;0,004695015
157351,3;0,004696481
157367,4;0,004696481
157384;0,00468915
157418,2;0,00467742
157434,9;0,004646628
157451,3;0,004640763
157467,9;0,004639296
157484,5;0,004639296
157501;0,004645161
157517,6;0,004653959
157534,2;0,004648094
157550,7;0,004633431
157576,8;0,004609971
157593,6;0,004608504
157609,9;0,00459824
157626,5;0,004587977
157643,1;0,00458651
157659,6;0,004602639
157676,2;0,00458651
157693;0,004590909
157710;0,004602639
157734,2;0,004583578
157750,7;0,004580645
157767,3;0,004580645
157783,9;0,004605572
157800,4;0,004605572
157817;0,004605572
157833,6;0,004587977
157850,1;0,004604106
157866,8;0,004593842
157894,3;0,004599707
157911;0,004590909
157927,5;0,004595308
157944;0,004595308
157960,6;0,004570381
157977,1;0,004560117
157993,7;0,004543988
158010,6;0,004543988
158026,8;0,004539589
158051,6;0,004530792
158068,2;0,00452346
158084,7;0,004510264
158101,7;0,004510264
158118,1;0,004521994
158134,4;0,004521994
158155,3;0,004516129
158171,9;0,004514663
158189,1;0,004510264
158215,2;0,004470674
158231,7;0,004453079
158248,4;0,00444868
158264,9;0,004453079
158281,7;0,004447214
158298,1;0,004454546
158314,6;0,004450147
158331,1;0,004442815
158347,7;0,00444868
158370,9;0,004464809
158387,5;0,00444868
158404,4;0,004447214
158421,4;0,004441349
158437,2;0,004450147
158453,8;0,004432552
158470,4;0,00442522
158486,9;0,004414956
158504,4;0,004407625
158528,6;0,004412023
158545,2;0,004419355
158561,8;0,004407625
158578,3;0,004397361
158595;0,004397361
158611,5;0,004400293
158628;0,004404692
158644,6;0,004404692
158661,1;0,004406158
158686;0,004398827
158702,6;0,004404692
158719,3;0,004404692
158735,9;0,004417889
158752,3;0,004414956
158768,9;0,004414956
158785,5;0,004412023
158802,4;0,004412023
158818,6;0,004403226
158843,1;0,004420821
158866,9;0,004398827
158883,4;0,004422287
158900,1;0,004422287
158916,6;0,00442522
158933,1;0,004417889
158949,7;0,004431085
158966,3;0,004420821
158982,8;0,004423754
159007,3;0,004434017
159024,4;0,004439883
159040,4;0,00443695
159057,3;0,004447214
159073,5;0,004456012
159090,2;0,004445748
159106,7;0,004431085
159123,3;0,004438417
159140,3;0,004434017
159163,8;0,004431085
159180,6;0,00442522
159197;0,004438417
159214;0,004423754
159230,1;0,004410557
159246,6;0,004420821
159263,7;0,004426686
159279,8;0,004423754
159296,3;0,004439883
159319,7;0,00444868
159336,2;0,00444868
159352,8;0,004439883
159369,5;0,004450147
159386,4;0,004478006
159403,1;0,004478006
159419,4;0,00447654
159435,6;0,00447654
159452,2;0,004491203
159477,1;0,004505865
159494;0,0045
159510,4;0,0045
159526,8;0,004516129
159543,9;0,004510264
159560,2;0,004520528
159576,5;0,004508798
159593;0,004508798
159609,7;0,004507332
159641,6;0,004510264
159658,2;0,00452346
159674,8;0,00452346
159691,3;0,004530792
159707,9;0,004505865
159724,5;0,004502933
159741;0,004513197
159757,6;0,004513197
159774,2;0,004502933
159798,9;0,004489736
159815,4;0,004485337
159832;0,004485337
159848,7;0,004466276
159865,2;0,004473607
159881,8;0,004491203
159898,3;0,004497068
159914,8;0,004494135
159931,4;0,004507332
159954,4;0,004520528
159971;0,00452346
159987,5;0,004538123
160004,8;0,004539589
160020,8;0,004538123
160037,2;0,00455132
160053,8;0,00455132
160071,2;0,004541056
160086,9;0,004552786
160113,4;0,004555719
160130,6;0,004576246
160146,7;0,00456305
160163,1;0,004558651
160179,6;0,004560117
160196,2;0,004565983
160212,8;0,004604106
160229,4;0,004620234
160245,9;0,004627566
160269,2;0,00463783
160285,7;0,004643695
160302,3;0,004653959
160318,8;0,004668622
160335,4;0,004664223
160355,4;0,004690616
160372;0,00467302
160388,6;0,004680352
160405,3;0,004678885
160429,4;0,004681818
160446;0,004695015
160463;0,004686217
160479,1;0,00470088
160496,3;0,004696481
160512,3;0,004722874
160528,8;0,004718475
160545,9;0,004721408
160562,1;0,004715543
160584,8;0,004719941
160601,3;0,004711144
160617,9;0,004711144
160634,8;0,004737537
160651;0,004717009
160667,6;0,004715543
160684,2;0,004715543
160700,7;0,004730206
160717,8;0,004730206
160742,6;0,004727273
160759,5;0,004740469
160775,7;0,004736071
160792,3;0,004741936
160809,6;0,004744868
160825,6;0,004736071
160842;0,004730206
160858,5;0,004737537
160875,8;0,004733138
160898,4;0,004725806
160915;0,004755132
160931,6;0,00477566
160948,1;0,004778592
160964,7;0,004784457
160981,6;0,004781525
160997,8;0,004781525
161014,4;0,004766862
161031,4;0,004766862
161055,2;0,004777126
161076,1;0,004778592
161093;0,004778592
161109,4;0,004771261
161125,9;0,004778592
161142,4;0,004777126
161159;0,004800586
161176;0,004800586
161192,1;0,004782991
161215,9;0,004781525
161232,4;0,004793255
161249;0,004793255
161266,3;0,00478739
161282,1;0,004812317
161298,7;0,004809384
161316;0,004809384
161331,8;0,004819648
161348,4;0,004819648
161371,2;0,004824047
161388;0,004844575
161404,4;0,004832845
161420,9;0,004824047
161437,7;0,004824047
161454,9;0,004829912
161471,3;0,004824047
161487,3;0,004837243
161503,7;0,004834311
161527,2;0,004856305
161544,5;0,004824047
161560,5;0,004835777
161576,9;0,004837243
161593,8;0,00485044
161610,5;0,00483871
161627,4;0,004835777
161643,4;0,004835777
161659,8;0,004835777
161684,9;0,004837243
161701,5;0,004853372
161718,4;0,004853372
161734,7;0,004872434
161751,7;0,004888563
161767,7;0,004887097
161784,3;0,004887097
161800,8;0,004885631
161821,7;0,004892962
161847,1;0,004906158
161863,6;0,004900293
161880,2;0,004897361
161897,1;0,004895894
161913,5;0,004894428
161929,9;0,004894428
161946,5;0,004892962
161963,1;0,004892962
161979,6;0,004878299
162001,5;0,004876833
162018,8;0,004876833
162035,1;0,004869502
162051,2;0,004868035
162067,8;0,004876833
162084,3;0,004856305
162101,5;0,00483871
162117,5;0,004844575
162134;0,004835777
162158;0,004846041
162174,6;0,004846041
162191,1;0,004837243
162207,7;0,004840176
162224,3;0,004821114
162240,8;0,004809384
162257,4;0,004797654
162274;0,00478739
162290,5;0,00478739
162316,8;0,004793255
162333,6;0,004788856
162349,9;0,00477566
162366,7;0,004772727
162383;0,004762463
162399,6;0,004762463
162416,2;0,004762463
162432,7;0,00478739
162449,3;0,00477566
162473;0,004772727
162489,6;0,004784457
162506,8;0,004762463
162523,3;0,004771261
162539,8;0,004771261
162559,7;0,004753666
162576,2;0,00478739
162592,8;0,004797654
162609,4;0,004797654
162633,9;0,004797654
162650,5;0,004812317
162667,1;0,004831378
162683,8;0,00485044
162700,5;0,00485044
162716,8;0,004835777
162733,3;0,004835777
162749,9;0,00482698
162766,5;0,004803519
162790;0,004819648
162806,6;0,004809384
162823,2;0,004804986
162839,7;0,004804986
162857,1;0,004809384
162872,8;0,004796188
162889,6;0,004781525
162906;0,004790323
162923,1;0,004784457
162948,1;0,004743402
162964,7;0,00476393
162981,4;0,004781525
162997,8;0,004777126
163014,7;0,00479912
163030,9;0,00479912
163047,5;0,004781525
163064,1;0,00478739
163080,6;0,004771261
163105,1;0,004780059
163122;0,004781525
163138,8;0,004777126
163155,8;0,004765396
163171,4;0,004743402
163188,3;0,004765396
163204,5;0,004762463
163221,1;0,004772727
163237,7;0,004771261
163268,8;0,004772727
163285,3;0,004774194
163301,9;0,004755132
163318,5;0,004727273
163335,3;0,004728739
163351,8;0,004736071
163368,2;0,004736071
163384,8;0,004722874
163401,3;0,004718475
163424,3;0,004725806
163441;0,004719941
163458,3;0,004721408
163474,2;0,004719941
163490,6;0,004705279
163507,5;0,004708211
163523,8;0,004692082
163540,3;0,004696481
163556,9;0,004705279
163580,3;0,004695015
163596,8;0,004680352
163613,4;0,004695015
163630;0,00468915
163646,5;0,00468915
163663,1;0,004684751
163679,7;0,004674487
163696,2;0,004670088
163713;0,004674487
163738,6;0,004658358
163755,2;0,004671554
163771,7;0,004690616
163788,3;0,004693549
163805,4;0,004681818
163821,8;0,004690616
163838;0,004706745
163854,5;0,00471261
163871,3;0,00471261
163894,8;0,004717009
163911,4;0,004709677
163928;0,00471261
163944,5;0,004706745
163961,2;0,004684751
163984,2;0,004703812
164000,8;0,004711144
164017,3;0,004686217
164033,9;0,004683285
164057,3;0,004670088
164073,9;0,004658358
164090,4;0,004683285
164107;0,004681818
164123,6;0,004681818
164140,2;0,004697947
164156,9;0,004695015
164173,3;0,004690616
164189,8;0,00468915
164214,6;0,004675953
164231,1;0,004697947
164247,7;0,004702346
164264,3;0,004709677
164280,8;0,004709677
164297,4;0,004695015
164314;0,004711144
164330,6;0,004695015
164347,1;0,004690616
164370,8;0,004695015
164387,3;0,004708211
164403,9;0,004708211
164420,5;0,004702346
164437;0,004681818
164453,6;0,004690616
164470,4;0,004697947
164486,7;0,004697947
164503,3;0,004687683
164528,8;0,004687683
164546,4;0,004680352
164563;0,004687683
164579,5;0,004687683
164596,1;0,004665689
164612,7;0,0046261
164629,8;0,0046261
164645,8;0,004621701
164662,4;0,004621701
164697;0,004595308
164713,6;0,004589443
164730,2;0,004602639
164747,2;0,004601173
164763,3;0,004608504
164779,9;0,004596774
164796,5;0,004592375
164813,2;0,004609971
164836,1;0,004609971
164852,9;0,004590909
164869,3;0,004618769
164886,1;0,004608504
164902,4;0,004609971
164919,3;0,004604106
164935,5;0,004620234
164952,3;0,004620234
164968,7;0,004636364
164996;0,004602639
165012,5;0,004576246
165059,5;0,004583578
165076,1;0,00458651
165092,8;0,004596774
165109,2;0,004596774
165125,8;0,00459824
165152,5;0,004595308
165169,1;0,004596774
165185,7;0,004596774
165202,2;0,004605572
165218,8;0,004609971
165235,3;0,004582111
165251,9;0,004579179
165268,5;0,004579179
165285,3;0,004571848
165310,9;0,004571848
165327,5;0,004582111
165353,2;0,004560117
165369,7;0,004561584
165386,3;0,004561584
165403,5;0,004568915
165419,5;0,004593842
165436,7;0,00458651
165452,6;0,00459824
165477,9;0,004604106
165494,5;0,004596774
165511;0,004608504
165527,6;0,004618769
165544,2;0,004652493
165560,8;0,004662757
165577,3;0,004668622
165594,1;0,004671554
165610,6;0,004684751
165637,5;0,004696481
165654,3;0,004695015
165670,7;0,004725806
165687,2;0,00472434
165703,8;0,004717009
165720,6;0,004709677
165736,9;0,004730206
165753,5;0,004706745
165770,1;0,004695015
165794,4;0,004696481
165810,9;0,00468915
165827,5;0,004693549
165844,2;0,004693549
165860,6;0,004686217
165877,4;0,004681818
165893,8;0,004709677
165910,3;0,004703812
165926,9;0,004696481
165952,3;0,004696481
165968,9;0,004711144
165985,5;0,004703812
166002,1;0,004702346
166018,6;0,00471261
166038;0,004718475
166054,6;0,004727273
166071,6;0,004727273
166091,7;0,004746334
166118,7;0,0047522
166135,3;0,004740469
166151,9;0,004717009
166168,4;0,004725806
166185;0,004727273
166201,6;0,004743402
166218,1;0,004743402
166235,5;0,004743402
166251,4;0,004743402
166277;0,004706745
166293,6;0,00467742
166310,1;0,00467742
166326,7;0,004684751
166343,6;0,004697947
166360,6;0,004718475
166376,4;0,004705279
166393,2;0,004709677
166409,7;0,004715543
166433,9;0,004709677
166450,6;0,004711144
166467;0,00470088
166483,7;0,00470088
166500,2;0,00468915
166516,8;0,00468915
166533,3;0,004705279
166549,9;0,004695015
166566,5;0,004680352
166590,5;0,004675953
166607,1;0,004681818
166624,1;0,004708211
166640,3;0,004695015
166656,8;0,00471261
166673,7;0,004706745
166690,7;0,004714076
166706,5;0,004714076
166723,1;0,004690616
166755,4;0,004686217
166772;0,00470088
166788,6;0,004706745
166805,1;0,004706745
166821,7;0,004715543
166838,3;0,00471261
166854,9;0,004744868
166871,4;0,004714076
166888;0,004743402
166911,9;0,004737537
166928,5;0,004736071
166945;0,004718475
166961,6;0,004718475
166978,4;0,004730206
166994,7;0,004721408
167011,8;0,004709677
167027,9;0,004709677
167044,4;0,004721408
167072,7;0,004714076
167089,5;0,00471261
167106;0,00471261
167122,4;0,00471261
167139;0,004703812
167155,8;0,00470088
167172,3;0,004703812
167188,7;0,004714076
167205,3;0,004714076
167230,7;0,00471261
167247,4;0,004706745
167263,8;0,00471261
167280,5;0,004717009
167297,2;0,004721408
167313,5;0,004718475
167330,1;0,004741936
167346,7;0,004746334
167363,2;0,004746334
167388,8;0,004746334
167405,4;0,004743402
167422;0,004725806
167438,5;0,004733138
167458,6;0,004750733
167475,1;0,0047522
167491,7;0,004744868
167508,3;0,004746334
167524,8;0,004743402
167549,6;0,004731671
167566,2;0,004705279
167582,8;0,004706745
167599,5;0,004703812
167615,9;0,004684751
167632,5;0,004684751
167649,3;0,004668622
167665,6;0,004651026
167682,2;0,004651026
167706,6;0,004624634
167723,1;0,004634897
167740;0,004631965
167756,4;0,004631965
167772,8;0,004631965
167789,4;0,004614369
167806;0,004621701
167822,6;0,004618769
167839,1;0,004608504
167864,3;0,004607038
167880,9;0,004596774
167897,5;0,00458651
167914;0,00459824
167930,6;0,00458651
167947,2;0,004589443
167963,8;0,00458651
167980,3;0,004595308
167997;0,004595308
168019,9;0,004595308
168036,7;0,004601173
168053;0,004596774
168070;0,004587977
168086,1;0,004583578
168102,8;0,004577713
168119,3;0,004570381
168135,9;0,004568915
168154,7;0,004590909
168179,6;0,004602639
168196,7;0,004573314
168212,7;0,004585044
168229,3;0,004614369
168245,8;0,004615836
168262,4;0,004611437
168279;0,004611437
168295,5;0,004611437
168312,9;0,004611437
168339,2;0,004615836
168355,8;0,004593842
168372,3;0,004593842
168389,4;0,004601173
168405,5;0,004605572
168422;0,004599707
168438,7;0,004602639
168455,2;0,004607038
168471,7;0,004605572
168498,4;0,004605572
168515;0,004601173
168532,1;0,004602639
168548,1;0,004602639
168564,8;0,004602639
168581,2;0,004592375
168597,8;0,004614369
168614,4;0,004636364
168631;0,004623167
168656,6;0,004630499
168673,2;0,00463783
168689,7;0,004624634
168706,3;0,004617302
168722,9;0,004639296
168739,5;0,004623167
168756;0,004620234
168772,5;0,004615836
168789,1;0,004609971
168812,9;0,004599707
168829,5;0,004634897
168846,4;0,004634897
168862,6;0,004634897
168884,9;0,004615836
168901,5;0,004599707
168918,4;0,004593842
168935,3;0,004593842
168951,2;0,00459824
168976,1;0,004573314
168992,7;0,004580645
169009,3;0,004580645
169025,8;0,004595308
169042,4;0,004595308
169059,3;0,004593842
169075,7;0,004596774
169092,1;0,004617302
169108,7;0,004615836
169137,2;0,0046261
169154,2;0,0046261
169170,4;0,004618769
169186,9;0,004620234
169203,7;0,00463783
169220,1;0,004621701
169236,7;0,004633431
169253,2;0,004621701
169269,9;0,004624634
169294,1;0,004618769
169310,7;0,004609971
169327,5;0,004609971
169344,1;0,004605572
169361;0,004587977
169377,3;0,004596774
169393,7;0,00459824
169410,1;0,004602639
169426,7;0,004582111
169452,5;0,004587977
169469,1;0,004573314
169485,7;0,004567449
169502,2;0,004585044
169518,8;0,004580645
169535,4;0,00457478
169551,9;0,004564516
169568,5;0,004570381
169591,5;0,004567449
169618,8;0,004570381
169635,6;0,004576246
169652;0,004576246
169668,5;0,004579179
169685,1;0,004579179
169701,7;0,004585044
169718,3;0,004592375
169735,3;0,00464956
169761,2;0,004645161
169777,8;0,004656891
169794,4;0,004648094
169811,8;0,004648094
169827,5;0,004642229
169844,1;0,004643695
169860,6;0,004659824
169877,2;0,004653959
169893,8;0,004653959
169919,8;0,004664223
169936,9;0,004678885
169952,9;0,004678885
169969,7;0,004727273
169986;0,00472434
170002,6;0,004719941
170019,6;0,004695015
170035,8;0,004686217
170052,6;0,004703812
170075,2;0,004715543
170092,3;0,004714076
170108,8;0,004717009
170124,9;0,004714076
170141,4;0,004697947
170158;0,00471261
170174,6;0,004718475
170191,4;0,004714076
170207,7;0,00468915
170232,7;0,004699414
170249,3;0,004706745
170266;0,004706745
170282,4;0,004705279
170299,5;0,004714076
170318,9;0,004709677
170335,4;0,004717009
170352;0,004714076
170369;0,004709677
170393;0,004711144
170410,2;0,004714076
170426,6;0,004714076
170443;0,004722874
170459,3;0,004711144
170475,9;0,00472434
170492,8;0,00471261
170509,2;0,004722874
170525,6;0,004741936
170550,6;0,004736071
170567,1;0,004725806
170584,3;0,004721408
170600,6;0,00471261
170616,8;0,00471261
170633,4;0,004737537
170650,1;0,004731671
170666,5;0,004727273
170683,3;0,004727273
170710,1;0,004711144
170726,7;0,004711144
170743,2;0,004743402
170760,2;0,004746334
170776,4;0,004730206
170793;0,004749267
170809,6;0,004756598
170826,6;0,004728739
170843;0,004725806
170867,9;0,00472434
170884,5;0,004740469
170901,1;0,004727273
170917,6;0,004746334
170934,2;0,004746334
170951,6;0,004760997
170967,3;0,004759531
170983,9;0,004788856
171000,5;0,004788856
171033,3;0,004819648
171049,9;0,004813783
171066,9;0,004802053
171083;0,004818182
171099,7;0,004821114
171116,2;0,004813783
171132,7;0,004819648
171149,3;0,004818182
171165,8;0,004812317
171191,8;0,004803519
171208,4;0,004803519
171225,2;0,004844575
171241,5;0,004841642
171258,1;0,004846041
171274,6;0,004832845
171291,2;0,004829912
171307,8;0,004848974
171324,8;0,004857771
171349,3;0,004866569
171365,9;0,0048739
171382,5;0,004870968
171399,5;0,004876833
171415,8;0,004875367
171432,8;0,004875367
171448,8;0,004876833
171465,5;0,004876833
171482,3;0,004866569
171507,9;0,004897361
171524,5;0,004894428
171541;0,004907625
171557,6;0,004907625
171574,2;0,004898827
171591,4;0,004898827
171607,5;0,004909091
171623,9;0,004910557
171640,4;0,004944282
171665;0,004938417
171681,7;0,004909091
171698,1;0,00490176
171714,7;0,004907625
171731,3;0,004907625
171754,2;0,004909091
171770,8;0,004910557
171787,4;0,004907625
171804,1;0,004888563
171829,3;0,004892962
171845,8;0,004917888
171862,4;0,004932551
171879;0,004953079
171895,5;0,004957478
171912,1;0,004957478
171929,2;0,004934018
171945,3;0,004929619
171961,8;0,004929619
171987,9;0,004879766
172004,5;0,004906158
172021,1;0,004906158
172037,6;0,004891496
172054,2;0,004879766
172070,8;0,004868035
172087,3;0,004876833
172104;0,004868035
172120,5;0,0048739
172144,2;0,004898827
172160,8;0,004868035
172177,3;0,004851906
172193,9;0,004853372
172210,5;0,004856305
172227;0,00486217
172243,8;0,004856305
172260,2;0,004851906
172276,7;0,004828446
172300,6;0,004828446
172317,4;0,004828446
172333,8;0,004841642
172350,3;0,00483871
172367;0,004840176
172383,5;0,004841642
172400;0,004837243
172416,8;0,00483871
172437;0,00483871
172465,6;0,004837243
172482,2;0,004821114
172499,1;0,004821114
172515,3;0,00482698
172532;0,004844575
172548,5;0,004828446
172565,2;0,004825513
172581,6;0,004825513
172598,1;0,004840176
172620,8;0,004840176
172637,8;0,004824047
172654,1;0,004851906
172671,5;0,004860704
172687,1;0,004853372
172703,7;0,00486217
172720,2;0,004856305
172736,8;0,004853372
172753,5;0,004840176
172776,5;0,004853372
172793,2;0,004832845
172810,5;0,004832845
172826,3;0,004825513
172842,8;0,004829912
172859,9;0,004829912
172876;0,004835777
172892,7;0,004816716
172909,6;0,004825513
172933,9;0,004813783
172950,8;0,004791789
172967;0,004804986
172983,6;0,004803519
173000,2;0,004797654
173016,7;0,004797654
173033,3;0,004794721
173049,9;0,004778592
173066,4;0,004774194
173091,8;0,00477566
173108,5;0,00476393
173125;0,004769795
173141,5;0,004772727
173161,7;0,004760997
173178,5;0,004766862
173194,9;0,004766862
173211,4;0,004769795
173228;0,00476393
173253,4;0,004772727
173270,3;0,004777126
173286,5;0,004812317
173303,1;0,004806451
173319,6;0,004806451
173336,2;0,004803519
173352,8;0,00478739
173369,6;0,004782991
173385,9;0,004778592
173410,6;0,004802053
173427,3;0,004802053
173443,7;0,004807918
173460,5;0,004804986
173476,8;0,004803519
173493,7;0,004803519
173510,5;0,004797654
173527;0,004788856
173543,1;0,004774194
173569,5;0,004758065
173586,1;0,004758065
173602,6;0,004785924
173619,2;0,00477566
173636,4;0,004755132
173652,5;0,004750733
173668,9;0,004750733
173685,5;0,004746334
173702,1;0,004736071
173727,4;0,004730206
173743,9;0,004730206
173760,6;0,00472434
173777,1;0,00472434
173794;0,004733138
173810,5;0,004725806
173827;0,004718475
173843,8;0,004690616
173859,9;0,004683285
173894,4;0,004664223
173911;0,004664223
173927,5;0,004678885
173944,3;0,004680352
173960,7;0,004680352
173977,3;0,004653959
173994,3;0,00468915
174010,4;0,004687683
174035,8;0,004695015
174052,3;0,004693549
174068,9;0,004708211
174085,5;0,004708211
174102;0,004705279
174118,6;0,004705279
174135,2;0,004708211
174152;0,004711144
174168,3;0,004709677
174191,9;0,004721408
174208,8;0,004731671
174225,2;0,004740469
174241,6;0,00472434
174258,4;0,004759531
174274,7;0,004759531
174291,3;0,0047522
174307,9;0,004758065
174324,5;0,004768328
174350,1;0,004760997
174366,7;0,004753666
174383,5;0,004771261
174399,8;0,004791789
174416,3;0,004802053
174432,9;0,004810851
174449,5;0,00479912
174466,1;0,004831378
174482,6;0,004835777
174507,9;0,004815249
174524,5;0,004807918
174541,1;0,004822581
174558,1;0,00479912
174574,6;0,004802053
174591;0,004802053
174612,5;0,00477566
174629,2;0,004750733
174646,5;0,004762463
174670,8;0,004758065
174687,8;0,004769795
174704;0,004771261
174720,5;0,004774194
174737,1;0,004774194
174753,7;0,004771261
174770,2;0,004780059
174787,1;0,004802053
174803,4;0,004802053
174828;0,004794721
174844,8;0,004780059
174861,2;0,00476393
174877,7;0,004785924
174894,3;0,004791789
174910,8;0,004777126
174927,4;0,004793255
174944;0,004785924
174960,5;0,004794721
174984,9;0,00478739
175001,8;0,004810851
175018,2;0,004806451
175034,6;0,004819648
175051,3;0,004816716
175068,1;0,004837243
175085,1;0,004843108
175101;0,004840176
175117,5;0,004837243
175142,2;0,00485044
175158,8;0,004846041
175175,3;0,004844575
175191,9;0,004844575
175208,8;0,004866569
175225;0,004840176
175241,6;0,004840176
175258,1;0,004829912
175274,7;0,004824047
175300,5;0,004803519
175322;0,004816716
175338,6;0,004815249
175355,2;0,004835777
175371,8;0,004837243
175388,5;0,004835777
175404,9;0,004822581
175421,5;0,004828446
175438;0,004828446
175461,7;0,004843108
175478,3;0,004804986
175495,2;0,004803519
175511,4;0,004806451
175528;0,004790323
175544,6;0,004806451
175561,1;0,004797654
175577,7;0,004780059
175594,2;0,00477566
175618;0,004765396
175634,6;0,004784457
175651,2;0,004784457
175667,7;0,004784457
175684,3;0,004780059
175700,8;0,004771261
175717,4;0,004771261
175734;0,004760997
175751;0,004766862
175774,2;0,004778592
175790,8;0,004780059
175807,4;0,004788856
175823,9;0,004788856
175840,5;0,004803519
175857,1;0,004793255
175873,6;0,00477566
175890,7;0,004791789
175906,8;0,004802053
175931,1;0,004797654
175947,6;0,004788856
175964,2;0,00478739
175980,8;0,00479912
175997,6;0,00478739
176013,9;0,004771261
176034,6;0,004771261
176051,2;0,004771261
176068,1;0,004771261
176091;0,004760997
176107,5;0,00476393
176124,1;0,004766862
176141,1;0,00477566
176157,2;0,004785924
176174,3;0,00477566
176190,3;0,004762463
176206,9;0,004762463
176223,5;0,004760997
176250,3;0,004771261
176266,9;0,004778592
176283,8;0,004777126
176300;0,004760997
176316,7;0,004766862
176333,6;0,004747801
176349,8;0,004755132
176366,3;0,004755132
176382,9;0,004746334
176409;0,004717009
176425,7;0,004722874
176442,1;0,004717009
176458,7;0,004730206
176475,4;0,004706745
176491,8;0,004715543
176508,4;0,00472434
176525;0,004727273
176541,8;0,004733138
176567,5;0,004736071
176584,1;0,004749267
176600,7;0,004743402
176617,3;0,004755132
176633,9;0,004746334
176650,8;0,004753666
176667;0,004743402
176683,5;0,004746334
176700,1;0,004744868
176724,8;0,004758065
176741,3;0,004758065
176763,4;0,004743402
176780,5;0,004743402
176797,2;0,004741936
176813,1;0,004741936
176830,1;0,004743402
176846,5;0,004740469
176862,8;0,004756598
176887,6;0,0047522
176904,2;0,004781525
176920,8;0,004756598
176937,7;0,004758065
176953,9;0,004746334
176970,5;0,004749267
176987;0,004739003
177003,6;0,004739003
177020,2;0,004743402
